0.00000000,1397.00000000
0.00390625,1392.00000000
0.00781250,1392.00000000
0.01171875,1394.00000000
0.01562500,1401.00000000
0.01953125,1392.00000000
0.02343750,1391.00000000
0.02734375,1393.00000000
0.03125000,1394.00000000
0.03515625,1398.00000000
0.03906250,1398.00000000
0.04296875,1401.00000000
0.04687500,1410.00000000
0.05078125,1419.00000000
0.05468750,1427.00000000
0.05859375,1432.00000000
0.06250000,1426.00000000
0.06640625,1423.00000000
0.07031250,1427.00000000
0.07421875,1428.00000000
0.07812500,1421.00000000
0.08203125,1420.00000000
0.08593750,1414.00000000
0.08984375,1415.00000000
0.09375000,1411.00000000
0.09765625,1407.00000000
0.10156250,1397.00000000
0.10546875,1391.00000000
0.10937500,1390.00000000
0.11328125,1378.00000000
0.11718750,1374.00000000
0.12109375,1367.00000000
0.12500000,1373.00000000
0.12890625,1372.00000000
0.13281250,1365.00000000
0.13671875,1367.00000000
0.14062500,1362.00000000
0.14453125,1370.00000000
0.14843750,1368.00000000
0.15234375,1363.00000000
0.15625000,1361.00000000
0.16015625,1369.00000000
0.16406250,1368.00000000
0.16796875,1360.00000000
0.17187500,1357.00000000
0.17578125,1355.00000000
0.17968750,1355.00000000
0.18359375,1354.00000000
0.18750000,1351.00000000
0.19140625,1367.00000000
0.19531250,1410.00000000
0.19921875,1444.00000000
0.20312500,1510.00000000
0.20703125,1550.00000000
0.21093750,1602.00000000
0.21484375,1646.00000000
0.21875000,1652.00000000
0.22265625,1646.00000000
0.22656250,1636.00000000
0.23046875,1623.00000000
0.23437500,1608.00000000
0.23828125,1594.00000000
0.24218750,1580.00000000
0.24609375,1549.00000000
0.25000000,1496.00000000
0.25390625,1475.00000000
0.25781250,1458.00000000
0.26171875,1448.00000000
0.26562500,1399.00000000
0.26953125,1369.00000000
0.27343750,1302.00000000
0.27734375,1239.00000000
0.28125000,1205.00000000
0.28515625,1200.00000000
0.28906250,1210.00000000
0.29296875,1222.00000000
0.29687500,1237.00000000
0.30078125,1244.00000000
0.30468750,1251.00000000
0.30859375,1263.00000000
0.31250000,1282.00000000
0.31640625,1284.00000000
0.32031250,1300.00000000
0.32421875,1299.00000000
0.32812500,1308.00000000
0.33203125,1318.00000000
0.33593750,1323.00000000
0.33984375,1321.00000000
0.34375000,1324.00000000
0.34765625,1335.00000000
0.35156250,1338.00000000
0.35546875,1335.00000000
0.35937500,1338.00000000
0.36328125,1348.00000000
0.36718750,1353.00000000
0.37109375,1348.00000000
0.37500000,1352.00000000
0.37890625,1352.00000000
0.38281250,1358.00000000
0.38671875,1363.00000000
0.39062500,1364.00000000
0.39453125,1363.00000000
0.39843750,1369.00000000
0.40234375,1369.00000000
0.40625000,1371.00000000
0.41015625,1377.00000000
0.41406250,1373.00000000
0.41796875,1376.00000000
0.42187500,1382.00000000
0.42578125,1389.00000000
0.42968750,1390.00000000
0.43359375,1390.00000000
0.43750000,1390.00000000
0.44140625,1396.00000000
0.44531250,1403.00000000
0.44921875,1399.00000000
0.45312500,1403.00000000
0.45703125,1406.00000000
0.46093750,1413.00000000
0.46484375,1414.00000000
0.46875000,1410.00000000
0.47265625,1411.00000000
0.47656250,1413.00000000
0.48046875,1413.00000000
0.48437500,1414.00000000
0.48828125,1404.00000000
0.49218750,1402.00000000
0.49609375,1409.00000000
0.50000000,1398.00000000
0.50390625,1383.00000000
0.50781250,1371.00000000
0.51171875,1362.00000000
0.51562500,1361.00000000
0.51953125,1352.00000000
0.52343750,1343.00000000
0.52734375,1342.00000000
0.53125000,1349.00000000
0.53515625,1346.00000000
0.53906250,1344.00000000
0.54296875,1339.00000000
0.54687500,1337.00000000
0.55078125,1337.00000000
0.55468750,1339.00000000
0.55859375,1341.00000000
0.56250000,1339.00000000
0.56640625,1339.00000000
0.57031250,1340.00000000
0.57421875,1346.00000000
0.57812500,1345.00000000
0.58203125,1347.00000000
0.58593750,1346.00000000
0.58984375,1356.00000000
0.59375000,1362.00000000
0.59765625,1359.00000000
0.60156250,1355.00000000
0.60546875,1361.00000000
0.60937500,1362.00000000
0.61328125,1361.00000000
0.61718750,1357.00000000
0.62109375,1358.00000000
0.62500000,1369.00000000
0.62890625,1373.00000000
0.63281250,1368.00000000
0.63671875,1364.00000000
0.64062500,1365.00000000
0.64453125,1370.00000000
0.64843750,1373.00000000
0.65234375,1368.00000000
0.65625000,1365.00000000
0.66015625,1366.00000000
0.66406250,1371.00000000
0.66796875,1373.00000000
0.67187500,1368.00000000
0.67578125,1369.00000000
0.67968750,1377.00000000
0.68359375,1373.00000000
0.68750000,1371.00000000
0.69140625,1371.00000000
0.69531250,1373.00000000
0.69921875,1378.00000000
0.70312500,1377.00000000
0.70703125,1378.00000000
0.71093750,1374.00000000
0.71484375,1373.00000000
0.71875000,1376.00000000
0.72265625,1373.00000000
0.72656250,1381.00000000
0.73046875,1378.00000000
0.73437500,1374.00000000
0.73828125,1378.00000000
0.74218750,1379.00000000
0.74609375,1374.00000000
0.75000000,1375.00000000
0.75390625,1379.00000000
0.75781250,1379.00000000
0.76171875,1377.00000000
0.76562500,1376.00000000
0.76953125,1382.00000000
0.77343750,1382.00000000
0.77734375,1383.00000000
0.78125000,1381.00000000
0.78515625,1380.00000000
0.78906250,1382.00000000
0.79296875,1384.00000000
0.79687500,1388.00000000
0.80078125,1380.00000000
0.80468750,1379.00000000
0.80859375,1383.00000000
0.81250000,1388.00000000
0.81640625,1393.00000000
0.82031250,1389.00000000
0.82421875,1397.00000000
0.82812500,1407.00000000
0.83203125,1409.00000000
0.83593750,1408.00000000
0.83984375,1405.00000000
0.84375000,1406.00000000
0.84765625,1411.00000000
0.85156250,1404.00000000
0.85546875,1403.00000000
0.85937500,1401.00000000
0.86328125,1394.00000000
0.86718750,1395.00000000
0.87109375,1384.00000000
0.87500000,1381.00000000
0.87890625,1370.00000000
0.88281250,1364.00000000
0.88671875,1364.00000000
0.89062500,1364.00000000
0.89453125,1358.00000000
0.89843750,1356.00000000
0.90234375,1355.00000000
0.90625000,1356.00000000
0.91015625,1358.00000000
0.91406250,1348.00000000
0.91796875,1349.00000000
0.92187500,1353.00000000
0.92578125,1352.00000000
0.92968750,1352.00000000
0.93359375,1342.00000000
0.93750000,1344.00000000
0.94140625,1341.00000000
0.94531250,1344.00000000
0.94921875,1335.00000000
0.95312500,1326.00000000
0.95703125,1333.00000000
0.96093750,1327.00000000
0.96484375,1355.00000000
0.96875000,1427.00000000
0.97265625,1471.00000000
0.97656250,1538.00000000
0.98046875,1584.00000000
0.98437500,1589.00000000
0.98828125,1582.00000000
0.99218750,1581.00000000
0.99609375,1596.00000000
1.00000000,1598.00000000
1.00390625,1592.00000000
1.00781250,1582.00000000
1.01171875,1553.00000000
1.01562500,1535.00000000
1.01953125,1495.00000000
1.02343750,1435.00000000
1.02734375,1397.00000000
1.03125000,1338.00000000
1.03515625,1313.00000000
1.03906250,1260.00000000
1.04296875,1217.00000000
1.04687500,1199.00000000
1.05078125,1201.00000000
1.05468750,1214.00000000
1.05859375,1221.00000000
1.06250000,1235.00000000
1.06640625,1239.00000000
1.07031250,1253.00000000
1.07421875,1262.00000000
1.07812500,1268.00000000
1.08203125,1273.00000000
1.08593750,1283.00000000
1.08984375,1291.00000000
1.09375000,1294.00000000
1.09765625,1301.00000000
1.10156250,1300.00000000
1.10546875,1304.00000000
1.10937500,1319.00000000
1.11328125,1325.00000000
1.11718750,1322.00000000
1.12109375,1322.00000000
1.12500000,1326.00000000
1.12890625,1335.00000000
1.13281250,1335.00000000
1.13671875,1336.00000000
1.14062500,1337.00000000
1.14453125,1343.00000000
1.14843750,1347.00000000
1.15234375,1346.00000000
1.15625000,1340.00000000
1.16015625,1349.00000000
1.16406250,1351.00000000
1.16796875,1350.00000000
1.17187500,1346.00000000
1.17578125,1348.00000000
1.17968750,1351.00000000
1.18359375,1359.00000000
1.18750000,1366.00000000
1.19140625,1365.00000000
1.19531250,1367.00000000
1.19921875,1371.00000000
1.20312500,1381.00000000
1.20703125,1388.00000000
1.21093750,1385.00000000
1.21484375,1385.00000000
1.21875000,1396.00000000
1.22265625,1396.00000000
1.22656250,1394.00000000
1.23046875,1393.00000000
1.23437500,1391.00000000
1.23828125,1399.00000000
1.24218750,1398.00000000
1.24609375,1395.00000000
1.25000000,1393.00000000
1.25390625,1394.00000000
1.25781250,1398.00000000
1.26171875,1392.00000000
1.26562500,1383.00000000
1.26953125,1378.00000000
1.27343750,1361.00000000
1.27734375,1367.00000000
1.28125000,1360.00000000
1.28515625,1345.00000000
1.28906250,1338.00000000
1.29296875,1329.00000000
1.29687500,1335.00000000
1.30078125,1330.00000000
1.30468750,1327.00000000
1.30859375,1325.00000000
1.31250000,1333.00000000
1.31640625,1340.00000000
1.32031250,1337.00000000
1.32421875,1334.00000000
1.32812500,1338.00000000
1.33203125,1342.00000000
1.33593750,1350.00000000
1.33984375,1344.00000000
1.34375000,1347.00000000
1.34765625,1347.00000000
1.35156250,1358.00000000
1.35546875,1359.00000000
1.35937500,1354.00000000
1.36328125,1357.00000000
1.36718750,1365.00000000
1.37109375,1362.00000000
1.37500000,1362.00000000
1.37890625,1364.00000000
1.38281250,1363.00000000
1.38671875,1369.00000000
1.39062500,1373.00000000
1.39453125,1370.00000000
1.39843750,1369.00000000
1.40234375,1368.00000000
1.40625000,1379.00000000
1.41015625,1380.00000000
1.41406250,1375.00000000
1.41796875,1373.00000000
1.42187500,1372.00000000
1.42578125,1377.00000000
1.42968750,1373.00000000
1.43359375,1374.00000000
1.43750000,1372.00000000
1.44140625,1379.00000000
1.44531250,1378.00000000
1.44921875,1378.00000000
1.45312500,1373.00000000
1.45703125,1376.00000000
1.46093750,1379.00000000
1.46484375,1380.00000000
1.46875000,1376.00000000
1.47265625,1370.00000000
1.47656250,1375.00000000
1.48046875,1374.00000000
1.48437500,1369.00000000
1.48828125,1369.00000000
1.49218750,1367.00000000
1.49609375,1365.00000000
1.50000000,1372.00000000
1.50390625,1372.00000000
1.50781250,1367.00000000
1.51171875,1366.00000000
1.51562500,1374.00000000
1.51953125,1372.00000000
1.52343750,1371.00000000
1.52734375,1368.00000000
1.53125000,1367.00000000
1.53515625,1370.00000000
1.53906250,1373.00000000
1.54296875,1369.00000000
1.54687500,1366.00000000
1.55078125,1370.00000000
1.55468750,1371.00000000
1.55859375,1369.00000000
1.56250000,1364.00000000
1.56640625,1365.00000000
1.57031250,1366.00000000
1.57421875,1379.00000000
1.57812500,1384.00000000
1.58203125,1388.00000000
1.58593750,1384.00000000
1.58984375,1393.00000000
1.59375000,1402.00000000
1.59765625,1406.00000000
1.60156250,1403.00000000
1.60546875,1399.00000000
1.60937500,1407.00000000
1.61328125,1404.00000000
1.61718750,1395.00000000
1.62109375,1394.00000000
1.62500000,1388.00000000
1.62890625,1391.00000000
1.63281250,1381.00000000
1.63671875,1375.00000000
1.64062500,1368.00000000
1.64453125,1363.00000000
1.64843750,1366.00000000
1.65234375,1358.00000000
1.65625000,1351.00000000
1.66015625,1347.00000000
1.66406250,1351.00000000
1.66796875,1351.00000000
1.67187500,1346.00000000
1.67578125,1340.00000000
1.67968750,1341.00000000
1.68359375,1337.00000000
1.68750000,1335.00000000
1.69140625,1337.00000000
1.69531250,1329.00000000
1.69921875,1324.00000000
1.70312500,1329.00000000
1.70703125,1331.00000000
1.71093750,1328.00000000
1.71484375,1321.00000000
1.71875000,1325.00000000
1.72265625,1326.00000000
1.72656250,1320.00000000
1.73046875,1341.00000000
1.73437500,1395.00000000
1.73828125,1427.00000000
1.74218750,1496.00000000
1.74609375,1528.00000000
1.75000000,1575.00000000
1.75390625,1605.00000000
1.75781250,1616.00000000
1.76171875,1611.00000000
1.76562500,1597.00000000
1.76953125,1582.00000000
1.77343750,1569.00000000
1.77734375,1513.00000000
1.78125000,1457.00000000
1.78515625,1404.00000000
1.78906250,1346.00000000
1.79296875,1324.00000000
1.79687500,1323.00000000
1.80078125,1315.00000000
1.80468750,1254.00000000
1.80859375,1210.00000000
1.81250000,1201.00000000
1.81640625,1207.00000000
1.82031250,1208.00000000
1.82421875,1218.00000000
1.82812500,1231.00000000
1.83203125,1243.00000000
1.83593750,1253.00000000
1.83984375,1262.00000000
1.84375000,1266.00000000
1.84765625,1278.00000000
1.85156250,1284.00000000
1.85546875,1287.00000000
1.85937500,1288.00000000
1.86328125,1287.00000000
1.86718750,1294.00000000
1.87109375,1305.00000000
1.87500000,1312.00000000
1.87890625,1309.00000000
1.88281250,1313.00000000
1.88671875,1322.00000000
1.89062500,1325.00000000
1.89453125,1330.00000000
1.89843750,1328.00000000
1.90234375,1335.00000000
1.90625000,1334.00000000
1.91015625,1339.00000000
1.91406250,1341.00000000
1.91796875,1338.00000000
1.92187500,1343.00000000
1.92578125,1347.00000000
1.92968750,1352.00000000
1.93359375,1348.00000000
1.93750000,1348.00000000
1.94140625,1351.00000000
1.94531250,1360.00000000
1.94921875,1369.00000000
1.95312500,1367.00000000
1.95703125,1371.00000000
1.96093750,1375.00000000
1.96484375,1383.00000000
1.96875000,1388.00000000
1.97265625,1386.00000000
1.97656250,1383.00000000
1.98046875,1387.00000000
1.98437500,1390.00000000
1.98828125,1388.00000000
1.99218750,1392.00000000
1.99609375,1392.00000000
2.00000000,1397.00000000
2.00390625,1399.00000000
2.00781250,1398.00000000
2.01171875,1396.00000000
2.01562500,1391.00000000
2.01953125,1393.00000000
2.02343750,1390.00000000
2.02734375,1384.00000000
2.03125000,1372.00000000
2.03515625,1373.00000000
2.03906250,1362.00000000
2.04296875,1349.00000000
2.04687500,1335.00000000
2.05078125,1332.00000000
2.05468750,1327.00000000
2.05859375,1329.00000000
2.06250000,1328.00000000
2.06640625,1327.00000000
2.07031250,1326.00000000
2.07421875,1336.00000000
2.07812500,1333.00000000
2.08203125,1335.00000000
2.08593750,1337.00000000
2.08984375,1343.00000000
2.09375000,1347.00000000
2.09765625,1348.00000000
2.10156250,1342.00000000
2.10546875,1344.00000000
2.10937500,1344.00000000
2.11328125,1353.00000000
2.11718750,1353.00000000
2.12109375,1349.00000000
2.12500000,1349.00000000
2.12890625,1353.00000000
2.13281250,1354.00000000
2.13671875,1357.00000000
2.14062500,1355.00000000
2.14453125,1352.00000000
2.14843750,1358.00000000
2.15234375,1359.00000000
2.15625000,1355.00000000
2.16015625,1353.00000000
2.16406250,1354.00000000
2.16796875,1359.00000000
2.17187500,1360.00000000
2.17578125,1358.00000000
2.17968750,1355.00000000
2.18359375,1358.00000000
2.18750000,1365.00000000
2.19140625,1366.00000000
2.19531250,1365.00000000
2.19921875,1356.00000000
2.20312500,1364.00000000
2.20703125,1361.00000000
2.21093750,1358.00000000
2.21484375,1360.00000000
2.21875000,1357.00000000
2.22265625,1363.00000000
2.22656250,1365.00000000
2.23046875,1363.00000000
2.23437500,1358.00000000
2.23828125,1356.00000000
2.24218750,1359.00000000
2.24609375,1364.00000000
2.25000000,1359.00000000
2.25390625,1359.00000000
2.25781250,1359.00000000
2.26171875,1366.00000000
2.26562500,1366.00000000
2.26953125,1361.00000000
2.27343750,1361.00000000
2.27734375,1367.00000000
2.28125000,1372.00000000
2.28515625,1366.00000000
2.28906250,1362.00000000
2.29296875,1362.00000000
2.29687500,1369.00000000
2.30078125,1373.00000000
2.30468750,1371.00000000
2.30859375,1370.00000000
2.31250000,1375.00000000
2.31640625,1376.00000000
2.32031250,1379.00000000
2.32421875,1371.00000000
2.32812500,1367.00000000
2.33203125,1375.00000000
2.33593750,1378.00000000
2.33984375,1386.00000000
2.34375000,1387.00000000
2.34765625,1391.00000000
2.35156250,1400.00000000
2.35546875,1406.00000000
2.35937500,1409.00000000
2.36328125,1406.00000000
2.36718750,1412.00000000
2.37109375,1405.00000000
2.37500000,1409.00000000
2.37890625,1402.00000000
2.38281250,1402.00000000
2.38671875,1396.00000000
2.39062500,1393.00000000
2.39453125,1396.00000000
2.39843750,1388.00000000
2.40234375,1375.00000000
2.40625000,1368.00000000
2.41015625,1371.00000000
2.41406250,1366.00000000
2.41796875,1364.00000000
2.42187500,1361.00000000
2.42578125,1362.00000000
2.42968750,1365.00000000
2.43359375,1361.00000000
2.43750000,1359.00000000
2.44140625,1360.00000000
2.44531250,1360.00000000
2.44921875,1358.00000000
2.45312500,1350.00000000
2.45703125,1350.00000000
2.46093750,1344.00000000
2.46484375,1341.00000000
2.46875000,1341.00000000
2.47265625,1329.00000000
2.47656250,1335.00000000
2.48046875,1391.00000000
2.48437500,1411.00000000
2.48828125,1482.00000000
2.49218750,1530.00000000
2.49609375,1568.00000000
2.50000000,1614.00000000
2.50390625,1626.00000000
2.50781250,1624.00000000
2.51171875,1614.00000000
2.51562500,1601.00000000
2.51953125,1592.00000000
2.52343750,1575.00000000
2.52734375,1560.00000000
2.53125000,1538.00000000
2.53515625,1476.00000000
2.53906250,1443.00000000
2.54296875,1379.00000000
2.54687500,1337.00000000
2.55078125,1271.00000000
2.55468750,1211.00000000
2.55859375,1191.00000000
2.56250000,1187.00000000
2.56640625,1191.00000000
2.57031250,1204.00000000
2.57421875,1216.00000000
2.57812500,1231.00000000
2.58203125,1241.00000000
2.58593750,1245.00000000
2.58984375,1254.00000000
2.59375000,1267.00000000
2.59765625,1268.00000000
2.60156250,1272.00000000
2.60546875,1275.00000000
2.60937500,1286.00000000
2.61328125,1290.00000000
2.61718750,1299.00000000
2.62109375,1295.00000000
2.62500000,1300.00000000
2.62890625,1305.00000000
2.63281250,1315.00000000
2.63671875,1316.00000000
2.64062500,1312.00000000
2.64453125,1315.00000000
2.64843750,1325.00000000
2.65234375,1327.00000000
2.65625000,1327.00000000
2.66015625,1326.00000000
2.66406250,1326.00000000
2.66796875,1337.00000000
2.67187500,1337.00000000
2.67578125,1335.00000000
2.67968750,1337.00000000
2.68359375,1346.00000000
2.68750000,1350.00000000
2.69140625,1347.00000000
2.69531250,1349.00000000
2.69921875,1349.00000000
2.70312500,1350.00000000
2.70703125,1360.00000000
2.71093750,1359.00000000
2.71484375,1360.00000000
2.71875000,1364.00000000
2.72265625,1375.00000000
2.72656250,1377.00000000
2.73046875,1379.00000000
2.73437500,1385.00000000
2.73828125,1385.00000000
2.74218750,1398.00000000
2.74609375,1400.00000000
2.75000000,1397.00000000
2.75390625,1391.00000000
2.75781250,1393.00000000
2.76171875,1401.00000000
2.76562500,1399.00000000
2.76953125,1391.00000000
2.77343750,1388.00000000
2.77734375,1388.00000000
2.78125000,1393.00000000
2.78515625,1390.00000000
2.78906250,1384.00000000
2.79296875,1380.00000000
2.79687500,1378.00000000
2.80078125,1370.00000000
2.80468750,1352.00000000
2.80859375,1344.00000000
2.81250000,1339.00000000
2.81640625,1335.00000000
2.82031250,1336.00000000
2.82421875,1327.00000000
2.82812500,1324.00000000
2.83203125,1322.00000000
2.83593750,1329.00000000
2.83984375,1326.00000000
2.84375000,1327.00000000
2.84765625,1329.00000000
2.85156250,1338.00000000
2.85546875,1342.00000000
2.85937500,1343.00000000
2.86328125,1340.00000000
2.86718750,1339.00000000
2.87109375,1345.00000000
2.87500000,1347.00000000
2.87890625,1346.00000000
2.88281250,1347.00000000
2.88671875,1340.00000000
2.89062500,1349.00000000
2.89453125,1351.00000000
2.89843750,1347.00000000
2.90234375,1343.00000000
2.90625000,1343.00000000
2.91015625,1351.00000000
2.91406250,1348.00000000
2.91796875,1345.00000000
2.92187500,1347.00000000
2.92578125,1354.00000000
2.92968750,1354.00000000
2.93359375,1354.00000000
2.93750000,1343.00000000
2.94140625,1341.00000000
2.94531250,1350.00000000
2.94921875,1351.00000000
2.95312500,1351.00000000
2.95703125,1346.00000000
2.96093750,1344.00000000
2.96484375,1354.00000000
2.96875000,1353.00000000
2.97265625,1351.00000000
2.97656250,1348.00000000
2.98046875,1346.00000000
2.98437500,1352.00000000
2.98828125,1356.00000000
2.99218750,1349.00000000
2.99609375,1348.00000000
3.00000000,1357.00000000
3.00390625,1351.00000000
3.00781250,1348.00000000
3.01171875,1350.00000000
3.01562500,1347.00000000
3.01953125,1348.00000000
3.02343750,1355.00000000
3.02734375,1355.00000000
3.03125000,1350.00000000
3.03515625,1348.00000000
3.03906250,1354.00000000
3.04296875,1353.00000000
3.04687500,1357.00000000
3.05078125,1351.00000000
3.05468750,1359.00000000
3.05859375,1363.00000000
3.06250000,1363.00000000
3.06640625,1357.00000000
3.07031250,1357.00000000
3.07421875,1358.00000000
3.07812500,1364.00000000
3.08203125,1359.00000000
3.08593750,1358.00000000
3.08984375,1357.00000000
3.09375000,1362.00000000
3.09765625,1369.00000000
3.10156250,1378.00000000
3.10546875,1384.00000000
3.10937500,1383.00000000
3.11328125,1392.00000000
3.11718750,1389.00000000
3.12109375,1392.00000000
3.12500000,1390.00000000
3.12890625,1392.00000000
3.13281250,1395.00000000
3.13671875,1393.00000000
3.14062500,1384.00000000
3.14453125,1379.00000000
3.14843750,1371.00000000
3.15234375,1375.00000000
3.15625000,1373.00000000
3.16015625,1366.00000000
3.16406250,1362.00000000
3.16796875,1361.00000000
3.17187500,1359.00000000
3.17578125,1354.00000000
3.17968750,1346.00000000
3.18359375,1343.00000000
3.18750000,1344.00000000
3.19140625,1350.00000000
3.19531250,1344.00000000
3.19921875,1338.00000000
3.20312500,1338.00000000
3.20703125,1343.00000000
3.21093750,1343.00000000
3.21484375,1338.00000000
3.21875000,1334.00000000
3.22265625,1332.00000000
3.22656250,1338.00000000
3.23046875,1338.00000000
3.23437500,1330.00000000
3.23828125,1329.00000000
3.24218750,1333.00000000
3.24609375,1339.00000000
3.25000000,1336.00000000
3.25390625,1390.00000000
3.25781250,1430.00000000
3.26171875,1489.00000000
3.26562500,1545.00000000
3.26953125,1576.00000000
3.27343750,1616.00000000
3.27734375,1630.00000000
3.28125000,1628.00000000
3.28515625,1620.00000000
3.28906250,1605.00000000
3.29296875,1583.00000000
3.29687500,1549.00000000
3.30078125,1497.00000000
3.30468750,1455.00000000
3.30859375,1388.00000000
3.31250000,1353.00000000
3.31640625,1339.00000000
3.32031250,1333.00000000
3.32421875,1308.00000000
3.32812500,1248.00000000
3.33203125,1222.00000000
3.33593750,1218.00000000
3.33984375,1227.00000000
3.34375000,1237.00000000
3.34765625,1247.00000000
3.35156250,1257.00000000
3.35546875,1274.00000000
3.35937500,1283.00000000
3.36328125,1288.00000000
3.36718750,1296.00000000
3.37109375,1299.00000000
3.37500000,1309.00000000
3.37890625,1319.00000000
3.38281250,1317.00000000
3.38671875,1318.00000000
3.39062500,1329.00000000
3.39453125,1331.00000000
3.39843750,1333.00000000
3.40234375,1333.00000000
3.40625000,1331.00000000
3.41015625,1343.00000000
3.41406250,1342.00000000
3.41796875,1340.00000000
3.42187500,1339.00000000
3.42578125,1337.00000000
3.42968750,1345.00000000
3.43359375,1348.00000000
3.43750000,1346.00000000
3.44140625,1344.00000000
3.44531250,1350.00000000
3.44921875,1357.00000000
3.45312500,1362.00000000
3.45703125,1361.00000000
3.46093750,1363.00000000
3.46484375,1364.00000000
3.46875000,1372.00000000
3.47265625,1372.00000000
3.47656250,1373.00000000
3.48046875,1380.00000000
3.48437500,1385.00000000
3.48828125,1385.00000000
3.49218750,1390.00000000
3.49609375,1389.00000000
3.50000000,1392.00000000
3.50390625,1394.00000000
3.50781250,1394.00000000
3.51171875,1391.00000000
3.51562500,1388.00000000
3.51953125,1389.00000000
3.52343750,1389.00000000
3.52734375,1396.00000000
3.53125000,1390.00000000
3.53515625,1387.00000000
3.53906250,1393.00000000
3.54296875,1389.00000000
3.54687500,1388.00000000
3.55078125,1376.00000000
3.55468750,1368.00000000
3.55859375,1363.00000000
3.56250000,1347.00000000
3.56640625,1343.00000000
3.57031250,1330.00000000
3.57421875,1323.00000000
3.57812500,1328.00000000
3.58203125,1328.00000000
3.58593750,1323.00000000
3.58984375,1325.00000000
3.59375000,1329.00000000
3.59765625,1331.00000000
3.60156250,1325.00000000
3.60546875,1329.00000000
3.60937500,1328.00000000
3.61328125,1331.00000000
3.61718750,1335.00000000
3.62109375,1337.00000000
3.62500000,1334.00000000
3.62890625,1334.00000000
3.63281250,1344.00000000
3.63671875,1339.00000000
3.64062500,1339.00000000
3.64453125,1340.00000000
3.64843750,1337.00000000
3.65234375,1346.00000000
3.65625000,1349.00000000
3.66015625,1342.00000000
3.66406250,1341.00000000
3.66796875,1347.00000000
3.67187500,1347.00000000
3.67578125,1344.00000000
3.67968750,1345.00000000
3.68359375,1344.00000000
3.68750000,1351.00000000
3.69140625,1350.00000000
3.69531250,1350.00000000
3.69921875,1341.00000000
3.70312500,1348.00000000
3.70703125,1348.00000000
3.71093750,1352.00000000
3.71484375,1351.00000000
3.71875000,1348.00000000
3.72265625,1353.00000000
3.72656250,1354.00000000
3.73046875,1354.00000000
3.73437500,1350.00000000
3.73828125,1346.00000000
3.74218750,1347.00000000
3.74609375,1353.00000000
3.75000000,1351.00000000
3.75390625,1347.00000000
3.75781250,1347.00000000
3.76171875,1347.00000000
3.76562500,1356.00000000
3.76953125,1353.00000000
3.77343750,1349.00000000
3.77734375,1349.00000000
3.78125000,1349.00000000
3.78515625,1354.00000000
3.78906250,1352.00000000
3.79296875,1347.00000000
3.79687500,1347.00000000
3.80078125,1354.00000000
3.80468750,1351.00000000
3.80859375,1349.00000000
3.81250000,1350.00000000
3.81640625,1347.00000000
3.82031250,1355.00000000
3.82421875,1355.00000000
3.82812500,1350.00000000
3.83203125,1350.00000000
3.83593750,1356.00000000
3.83984375,1358.00000000
3.84375000,1356.00000000
3.84765625,1358.00000000
3.85156250,1368.00000000
3.85546875,1379.00000000
3.85937500,1385.00000000
3.86328125,1381.00000000
3.86718750,1382.00000000
3.87109375,1383.00000000
3.87500000,1387.00000000
3.87890625,1381.00000000
3.88281250,1383.00000000
3.88671875,1380.00000000
3.89062500,1380.00000000
3.89453125,1381.00000000
3.89843750,1378.00000000
3.90234375,1366.00000000
3.90625000,1362.00000000
3.91015625,1360.00000000
3.91406250,1357.00000000
3.91796875,1351.00000000
3.92187500,1335.00000000
3.92578125,1337.00000000
3.92968750,1342.00000000
3.93359375,1339.00000000
3.93750000,1338.00000000
3.94140625,1337.00000000
3.94531250,1339.00000000
3.94921875,1341.00000000
3.95312500,1340.00000000
3.95703125,1341.00000000
3.96093750,1337.00000000
3.96484375,1338.00000000
3.96875000,1343.00000000
3.97265625,1340.00000000
3.97656250,1336.00000000
3.98046875,1333.00000000
3.98437500,1331.00000000
3.98828125,1334.00000000
3.99218750,1332.00000000
3.99609375,1330.00000000
4.00000000,1377.00000000
4.00390625,1438.00000000
4.00781250,1488.00000000
4.01171875,1549.00000000
4.01562500,1578.00000000
4.01953125,1611.00000000
4.02343750,1632.00000000
4.02734375,1629.00000000
4.03125000,1619.00000000
4.03515625,1606.00000000
4.03906250,1594.00000000
4.04296875,1582.00000000
4.04687500,1568.00000000
4.05078125,1557.00000000
4.05468750,1533.00000000
4.05859375,1515.00000000
4.06250000,1481.00000000
4.06640625,1422.00000000
4.07031250,1384.00000000
4.07421875,1323.00000000
4.07812500,1294.00000000
4.08203125,1233.00000000
4.08593750,1193.00000000
4.08984375,1179.00000000
4.09375000,1182.00000000
4.09765625,1195.00000000
4.10156250,1211.00000000
4.10546875,1217.00000000
4.10937500,1227.00000000
4.11328125,1242.00000000
4.11718750,1253.00000000
4.12109375,1257.00000000
4.12500000,1262.00000000
4.12890625,1269.00000000
4.13281250,1278.00000000
4.13671875,1288.00000000
4.14062500,1290.00000000
4.14453125,1289.00000000
4.14843750,1292.00000000
4.15234375,1304.00000000
4.15625000,1308.00000000
4.16015625,1309.00000000
4.16406250,1315.00000000
4.16796875,1312.00000000
4.17187500,1322.00000000
4.17578125,1328.00000000
4.17968750,1326.00000000
4.18359375,1325.00000000
4.18750000,1330.00000000
4.19140625,1336.00000000
4.19531250,1337.00000000
4.19921875,1334.00000000
4.20312500,1337.00000000
4.20703125,1346.00000000
4.21093750,1349.00000000
4.21484375,1351.00000000
4.21875000,1349.00000000
4.22265625,1347.00000000
4.22656250,1360.00000000
4.23046875,1359.00000000
4.23437500,1359.00000000
4.23828125,1360.00000000
4.24218750,1365.00000000
4.24609375,1369.00000000
4.25000000,1370.00000000
4.25390625,1378.00000000
4.25781250,1377.00000000
4.26171875,1377.00000000
4.26562500,1389.00000000
4.26953125,1390.00000000
4.27343750,1385.00000000
4.27734375,1385.00000000
4.28125000,1390.00000000
4.28515625,1391.00000000
4.28906250,1386.00000000
4.29296875,1382.00000000
4.29687500,1375.00000000
4.30078125,1375.00000000
4.30468750,1374.00000000
4.30859375,1358.00000000
4.31250000,1351.00000000
4.31640625,1357.00000000
4.32031250,1358.00000000
4.32421875,1344.00000000
4.32812500,1327.00000000
4.33203125,1318.00000000
4.33593750,1312.00000000
4.33984375,1318.00000000
4.34375000,1319.00000000
4.34765625,1312.00000000
4.35156250,1316.00000000
4.35546875,1315.00000000
4.35937500,1326.00000000
4.36328125,1327.00000000
4.36718750,1324.00000000
4.37109375,1325.00000000
4.37500000,1328.00000000
4.37890625,1335.00000000
4.38281250,1338.00000000
4.38671875,1332.00000000
4.39062500,1337.00000000
4.39453125,1339.00000000
4.39843750,1336.00000000
4.40234375,1333.00000000
4.40625000,1335.00000000
4.41015625,1336.00000000
4.41406250,1343.00000000
4.41796875,1345.00000000
4.42187500,1340.00000000
4.42578125,1339.00000000
4.42968750,1348.00000000
4.43359375,1347.00000000
4.43750000,1343.00000000
4.44140625,1343.00000000
4.44531250,1345.00000000
4.44921875,1346.00000000
4.45312500,1351.00000000
4.45703125,1352.00000000
4.46093750,1350.00000000
4.46484375,1349.00000000
4.46875000,1358.00000000
4.47265625,1355.00000000
4.47656250,1357.00000000
4.48046875,1356.00000000
4.48437500,1354.00000000
4.48828125,1355.00000000
4.49218750,1359.00000000
4.49609375,1357.00000000
4.50000000,1357.00000000
4.50390625,1359.00000000
4.50781250,1363.00000000
4.51171875,1363.00000000
4.51562500,1366.00000000
4.51953125,1365.00000000
4.52343750,1369.00000000
4.52734375,1371.00000000
4.53125000,1374.00000000
4.53515625,1370.00000000
4.53906250,1370.00000000
4.54296875,1375.00000000
4.54687500,1375.00000000
4.55078125,1370.00000000
4.55468750,1366.00000000
4.55859375,1366.00000000
4.56250000,1371.00000000
4.56640625,1374.00000000
4.57031250,1372.00000000
4.57421875,1368.00000000
4.57812500,1369.00000000
4.58203125,1375.00000000
4.58593750,1375.00000000
4.58984375,1369.00000000
4.59375000,1370.00000000
4.59765625,1371.00000000
4.60156250,1377.00000000
4.60546875,1374.00000000
4.60937500,1369.00000000
4.61328125,1376.00000000
4.61718750,1388.00000000
4.62109375,1396.00000000
4.62500000,1396.00000000
4.62890625,1397.00000000
4.63281250,1399.00000000
4.63671875,1407.00000000
4.64062500,1404.00000000
4.64453125,1401.00000000
4.64843750,1402.00000000
4.65234375,1394.00000000
4.65625000,1399.00000000
4.66015625,1393.00000000
4.66406250,1384.00000000
4.66796875,1386.00000000
4.67187500,1383.00000000
4.67578125,1372.00000000
4.67968750,1376.00000000
4.68359375,1365.00000000
4.68750000,1356.00000000
4.69140625,1358.00000000
4.69531250,1349.00000000
4.69921875,1341.00000000
4.70312500,1339.00000000
4.70703125,1343.00000000
4.71093750,1342.00000000
4.71484375,1342.00000000
4.71875000,1332.00000000
4.72265625,1331.00000000
4.72656250,1339.00000000
4.73046875,1336.00000000
4.73437500,1336.00000000
4.73828125,1327.00000000
4.74218750,1323.00000000
4.74609375,1323.00000000
4.75000000,1325.00000000
4.75390625,1324.00000000
4.75781250,1319.00000000
4.76171875,1318.00000000
4.76562500,1322.00000000
4.76953125,1330.00000000
4.77343750,1369.00000000
4.77734375,1448.00000000
4.78125000,1497.00000000
4.78515625,1571.00000000
4.78906250,1604.00000000
4.79296875,1620.00000000
4.79687500,1623.00000000
4.80078125,1615.00000000
4.80468750,1600.00000000
4.80859375,1581.00000000
4.81250000,1539.00000000
4.81640625,1505.00000000
4.82031250,1452.00000000
4.82421875,1402.00000000
4.82812500,1327.00000000
4.83203125,1250.00000000
4.83593750,1217.00000000
4.83984375,1207.00000000
4.84375000,1210.00000000
4.84765625,1216.00000000
4.85156250,1222.00000000
4.85546875,1236.00000000
4.85937500,1243.00000000
4.86328125,1251.00000000
4.86718750,1257.00000000
4.87109375,1267.00000000
4.87500000,1275.00000000
4.87890625,1287.00000000
4.88281250,1296.00000000
4.88671875,1302.00000000
4.89062500,1300.00000000
4.89453125,1309.00000000
4.89843750,1320.00000000
4.90234375,1321.00000000
4.90625000,1322.00000000
4.91015625,1330.00000000
4.91406250,1335.00000000
4.91796875,1340.00000000
4.92187500,1339.00000000
4.92578125,1340.00000000
4.92968750,1340.00000000
4.93359375,1349.00000000
4.93750000,1356.00000000
4.94140625,1354.00000000
4.94531250,1352.00000000
4.94921875,1354.00000000
4.95312500,1363.00000000
4.95703125,1367.00000000
4.96093750,1360.00000000
4.96484375,1361.00000000
4.96875000,1362.00000000
4.97265625,1371.00000000
4.97656250,1372.00000000
4.98046875,1372.00000000
4.98437500,1379.00000000
4.98828125,1382.00000000
4.99218750,1388.00000000
4.99609375,1388.00000000
5.00000000,1396.00000000
5.00390625,1398.00000000
5.00781250,1408.00000000
5.01171875,1413.00000000
5.01562500,1408.00000000
5.01953125,1410.00000000
5.02343750,1410.00000000
5.02734375,1417.00000000
5.03125000,1411.00000000
5.03515625,1407.00000000
5.03906250,1405.00000000
5.04296875,1404.00000000
5.04687500,1409.00000000
5.05078125,1403.00000000
5.05468750,1400.00000000
5.05859375,1399.00000000
5.06250000,1396.00000000
5.06640625,1388.00000000
5.07031250,1377.00000000
5.07421875,1366.00000000
5.07812500,1357.00000000
5.08203125,1354.00000000
5.08593750,1348.00000000
5.08984375,1333.00000000
5.09375000,1333.00000000
5.09765625,1332.00000000
5.10156250,1334.00000000
5.10546875,1331.00000000
5.10937500,1329.00000000
5.11328125,1329.00000000
5.11718750,1333.00000000
5.12109375,1338.00000000
5.12500000,1340.00000000
5.12890625,1336.00000000
5.13281250,1340.00000000
5.13671875,1344.00000000
5.14062500,1345.00000000
5.14453125,1340.00000000
5.14843750,1338.00000000
5.15234375,1341.00000000
5.15625000,1349.00000000
5.16015625,1353.00000000
5.16406250,1352.00000000
5.16796875,1349.00000000
5.17187500,1354.00000000
5.17578125,1357.00000000
5.17968750,1355.00000000
5.18359375,1349.00000000
5.18750000,1351.00000000
5.19140625,1352.00000000
5.19531250,1356.00000000
5.19921875,1360.00000000
5.20312500,1357.00000000
5.20703125,1355.00000000
5.21093750,1363.00000000
5.21484375,1357.00000000
5.21875000,1357.00000000
5.22265625,1352.00000000
5.22656250,1355.00000000
5.23046875,1364.00000000
5.23437500,1360.00000000
5.23828125,1357.00000000
5.24218750,1355.00000000
5.24609375,1361.00000000
5.25000000,1361.00000000
5.25390625,1363.00000000
5.25781250,1355.00000000
5.26171875,1357.00000000
5.26562500,1363.00000000
5.26953125,1368.00000000
5.27343750,1360.00000000
5.27734375,1359.00000000
5.28125000,1356.00000000
5.28515625,1362.00000000
5.28906250,1360.00000000
5.29296875,1355.00000000
5.29687500,1356.00000000
5.30078125,1360.00000000
5.30468750,1362.00000000
5.30859375,1361.00000000
5.31250000,1352.00000000
5.31640625,1350.00000000
5.32031250,1349.00000000
5.32421875,1358.00000000
5.32812500,1358.00000000
5.33203125,1349.00000000
5.33593750,1355.00000000
5.33984375,1351.00000000
5.34375000,1355.00000000
5.34765625,1352.00000000
5.35156250,1348.00000000
5.35546875,1347.00000000
5.35937500,1353.00000000
5.36328125,1357.00000000
5.36718750,1353.00000000
5.37109375,1357.00000000
5.37500000,1367.00000000
5.37890625,1371.00000000
5.38281250,1373.00000000
5.38671875,1372.00000000
5.39062500,1372.00000000
5.39453125,1372.00000000
5.39843750,1378.00000000
5.40234375,1378.00000000
5.40625000,1371.00000000
5.41015625,1371.00000000
5.41406250,1370.00000000
5.41796875,1371.00000000
5.42187500,1368.00000000
5.42578125,1355.00000000
5.42968750,1348.00000000
5.43359375,1348.00000000
5.43750000,1349.00000000
5.44140625,1337.00000000
5.44531250,1330.00000000
5.44921875,1324.00000000
5.45312500,1330.00000000
5.45703125,1325.00000000
5.46093750,1323.00000000
5.46484375,1321.00000000
5.46875000,1321.00000000
5.47265625,1328.00000000
5.47656250,1329.00000000
5.48046875,1324.00000000
5.48437500,1323.00000000
5.48828125,1326.00000000
5.49218750,1335.00000000
5.49609375,1329.00000000
5.50000000,1327.00000000
5.50390625,1323.00000000
5.50781250,1325.00000000
5.51171875,1328.00000000
5.51562500,1329.00000000
5.51953125,1337.00000000
5.52343750,1386.00000000
5.52734375,1422.00000000
5.53125000,1485.00000000
5.53515625,1521.00000000
5.53906250,1568.00000000
5.54296875,1611.00000000
5.54687500,1630.00000000
5.55078125,1622.00000000
5.55468750,1611.00000000
5.55859375,1598.00000000
5.56250000,1590.00000000
5.56640625,1576.00000000
5.57031250,1564.00000000
5.57421875,1532.00000000
5.57812500,1482.00000000
5.58203125,1451.00000000
5.58593750,1385.00000000
5.58984375,1338.00000000
5.59375000,1267.00000000
5.59765625,1206.00000000
5.60156250,1190.00000000
5.60546875,1192.00000000
5.60937500,1200.00000000
5.61328125,1207.00000000
5.61718750,1221.00000000
5.62109375,1237.00000000
5.62500000,1239.00000000
5.62890625,1251.00000000
5.63281250,1259.00000000
5.63671875,1264.00000000
5.64062500,1281.00000000
5.64453125,1283.00000000
5.64843750,1295.00000000
5.65234375,1297.00000000
5.65625000,1305.00000000
5.66015625,1306.00000000
5.66406250,1306.00000000
5.66796875,1310.00000000
5.67187500,1311.00000000
5.67578125,1322.00000000
5.67968750,1326.00000000
5.68359375,1322.00000000
5.68750000,1325.00000000
5.69140625,1328.00000000
5.69531250,1338.00000000
5.69921875,1336.00000000
5.70312500,1340.00000000
5.70703125,1342.00000000
5.71093750,1343.00000000
5.71484375,1351.00000000
5.71875000,1352.00000000
5.72265625,1352.00000000
5.72656250,1352.00000000
5.73046875,1356.00000000
5.73437500,1362.00000000
5.73828125,1363.00000000
5.74218750,1365.00000000
5.74609375,1363.00000000
5.75000000,1370.00000000
5.75390625,1367.00000000
5.75781250,1373.00000000
5.76171875,1377.00000000
5.76562500,1383.00000000
5.76953125,1390.00000000
5.77343750,1391.00000000
5.77734375,1396.00000000
5.78125000,1392.00000000
5.78515625,1396.00000000
5.78906250,1400.00000000
5.79296875,1400.00000000
5.79687500,1395.00000000
5.80078125,1391.00000000
5.80468750,1397.00000000
5.80859375,1392.00000000
5.81250000,1388.00000000
5.81640625,1384.00000000
5.82031250,1373.00000000
5.82421875,1373.00000000
5.82812500,1364.00000000
5.83203125,1347.00000000
5.83593750,1341.00000000
5.83984375,1339.00000000
5.84375000,1334.00000000
5.84765625,1327.00000000
5.85156250,1328.00000000
5.85546875,1326.00000000
5.85937500,1330.00000000
5.86328125,1327.00000000
5.86718750,1326.00000000
5.87109375,1325.00000000
5.87500000,1325.00000000
5.87890625,1332.00000000
5.88281250,1335.00000000
5.88671875,1336.00000000
5.89062500,1331.00000000
5.89453125,1333.00000000
5.89843750,1342.00000000
5.90234375,1343.00000000
5.90625000,1337.00000000
5.91015625,1334.00000000
5.91406250,1337.00000000
5.91796875,1345.00000000
5.92187500,1346.00000000
5.92578125,1338.00000000
5.92968750,1339.00000000
5.93359375,1342.00000000
5.93750000,1346.00000000
5.94140625,1342.00000000
5.94531250,1345.00000000
5.94921875,1345.00000000
5.95312500,1345.00000000
5.95703125,1349.00000000
5.96093750,1347.00000000
5.96484375,1345.00000000
5.96875000,1353.00000000
5.97265625,1353.00000000
5.97656250,1352.00000000
5.98046875,1352.00000000
5.98437500,1351.00000000
5.98828125,1347.00000000
5.99218750,1358.00000000
5.99609375,1358.00000000
6.00000000,1350.00000000
6.00390625,1351.00000000
6.00781250,1350.00000000
6.01171875,1355.00000000
6.01562500,1349.00000000
6.01953125,1348.00000000
6.02343750,1351.00000000
6.02734375,1350.00000000
6.03125000,1354.00000000
6.03515625,1350.00000000
6.03906250,1351.00000000
6.04296875,1348.00000000
6.04687500,1357.00000000
6.05078125,1354.00000000
6.05468750,1352.00000000
6.05859375,1344.00000000
6.06250000,1348.00000000
6.06640625,1355.00000000
6.07031250,1356.00000000
6.07421875,1351.00000000
6.07812500,1352.00000000
6.08203125,1353.00000000
6.08593750,1355.00000000
6.08984375,1363.00000000
6.09375000,1358.00000000
6.09765625,1356.00000000
6.10156250,1362.00000000
6.10546875,1367.00000000
6.10937500,1366.00000000
6.11328125,1365.00000000
6.11718750,1363.00000000
6.12109375,1372.00000000
6.12500000,1373.00000000
6.12890625,1379.00000000
6.13281250,1385.00000000
6.13671875,1388.00000000
6.14062500,1396.00000000
6.14453125,1402.00000000
6.14843750,1399.00000000
6.15234375,1398.00000000
6.15625000,1397.00000000
6.16015625,1403.00000000
6.16406250,1396.00000000
6.16796875,1394.00000000
6.17187500,1388.00000000
6.17578125,1386.00000000
6.17968750,1383.00000000
6.18359375,1377.00000000
6.18750000,1365.00000000
6.19140625,1360.00000000
6.19531250,1362.00000000
6.19921875,1362.00000000
6.20312500,1357.00000000
6.20703125,1350.00000000
6.21093750,1350.00000000
6.21484375,1358.00000000
6.21875000,1354.00000000
6.22265625,1349.00000000
6.22656250,1352.00000000
6.23046875,1349.00000000
6.23437500,1354.00000000
6.23828125,1353.00000000
6.24218750,1344.00000000
6.24609375,1346.00000000
6.25000000,1339.00000000
6.25390625,1345.00000000
6.25781250,1346.00000000
6.26171875,1340.00000000
6.26562500,1335.00000000
6.26953125,1372.00000000
6.27343750,1388.00000000
6.27734375,1432.00000000
6.28125000,1476.00000000
6.28515625,1526.00000000
6.28906250,1587.00000000
6.29296875,1613.00000000
6.29687500,1627.00000000
6.30078125,1626.00000000
6.30468750,1617.00000000
6.30859375,1606.00000000
6.31250000,1592.00000000
6.31640625,1579.00000000
6.32031250,1559.00000000
6.32421875,1519.00000000
6.32812500,1486.00000000
6.33203125,1426.00000000
6.33593750,1367.00000000
6.33984375,1332.00000000
6.34375000,1294.00000000
6.34765625,1264.00000000
6.35156250,1213.00000000
6.35546875,1192.00000000
6.35937500,1190.00000000
6.36328125,1205.00000000
6.36718750,1218.00000000
6.37109375,1223.00000000
6.37500000,1228.00000000
6.37890625,1238.00000000
6.38281250,1253.00000000
6.38671875,1263.00000000
6.39062500,1262.00000000
6.39453125,1270.00000000
6.39843750,1280.00000000
6.40234375,1286.00000000
6.40625000,1294.00000000
6.41015625,1299.00000000
6.41406250,1296.00000000
6.41796875,1304.00000000
6.42187500,1310.00000000
6.42578125,1313.00000000
6.42968750,1312.00000000
6.43359375,1319.00000000
6.43750000,1317.00000000
6.44140625,1320.00000000
6.44531250,1324.00000000
6.44921875,1328.00000000
6.45312500,1329.00000000
6.45703125,1337.00000000
6.46093750,1340.00000000
6.46484375,1342.00000000
6.46875000,1338.00000000
6.47265625,1342.00000000
6.47656250,1351.00000000
6.48046875,1349.00000000
6.48437500,1350.00000000
6.48828125,1348.00000000
6.49218750,1357.00000000
6.49609375,1361.00000000
6.50000000,1358.00000000
6.50390625,1366.00000000
6.50781250,1363.00000000
6.51171875,1377.00000000
6.51562500,1380.00000000
6.51953125,1380.00000000
6.52343750,1383.00000000
6.52734375,1387.00000000
6.53125000,1395.00000000
6.53515625,1392.00000000
6.53906250,1391.00000000
6.54296875,1390.00000000
6.54687500,1395.00000000
6.55078125,1393.00000000
6.55468750,1389.00000000
6.55859375,1382.00000000
6.56250000,1386.00000000
6.56640625,1386.00000000
6.57031250,1375.00000000
6.57421875,1371.00000000
6.57812500,1365.00000000
6.58203125,1360.00000000
6.58593750,1355.00000000
6.58984375,1348.00000000
6.59375000,1334.00000000
6.59765625,1326.00000000
6.60156250,1321.00000000
6.60546875,1326.00000000
6.60937500,1321.00000000
6.61328125,1315.00000000
6.61718750,1316.00000000
6.62109375,1318.00000000
6.62500000,1327.00000000
6.62890625,1327.00000000
6.63281250,1327.00000000
6.63671875,1331.00000000
6.64062500,1336.00000000
6.64453125,1336.00000000
6.64843750,1336.00000000
6.65234375,1334.00000000
6.65625000,1333.00000000
6.66015625,1343.00000000
6.66406250,1344.00000000
6.66796875,1338.00000000
6.67187500,1339.00000000
6.67578125,1347.00000000
6.67968750,1347.00000000
6.68359375,1347.00000000
6.68750000,1343.00000000
6.69140625,1343.00000000
6.69531250,1346.00000000
6.69921875,1348.00000000
6.70312500,1349.00000000
6.70703125,1347.00000000
6.71093750,1348.00000000
6.71484375,1351.00000000
6.71875000,1351.00000000
6.72265625,1347.00000000
6.72656250,1349.00000000
6.73046875,1354.00000000
6.73437500,1351.00000000
6.73828125,1357.00000000
6.74218750,1350.00000000
6.74609375,1350.00000000
6.75000000,1350.00000000
6.75390625,1357.00000000
6.75781250,1350.00000000
6.76171875,1348.00000000
6.76562500,1348.00000000
6.76953125,1350.00000000
6.77343750,1356.00000000
6.77734375,1356.00000000
6.78125000,1356.00000000
6.78515625,1357.00000000
6.78906250,1355.00000000
6.79296875,1357.00000000
6.79687500,1353.00000000
6.80078125,1348.00000000
6.80468750,1350.00000000
6.80859375,1357.00000000
6.81250000,1357.00000000
6.81640625,1351.00000000
6.82031250,1346.00000000
6.82421875,1345.00000000
6.82812500,1354.00000000
6.83203125,1349.00000000
6.83593750,1346.00000000
6.83984375,1349.00000000
6.84375000,1350.00000000
6.84765625,1353.00000000
6.85156250,1355.00000000
6.85546875,1353.00000000
6.85937500,1353.00000000
6.86328125,1359.00000000
6.86718750,1355.00000000
6.87109375,1359.00000000
6.87500000,1369.00000000
6.87890625,1375.00000000
6.88281250,1385.00000000
6.88671875,1386.00000000
6.89062500,1389.00000000
6.89453125,1387.00000000
6.89843750,1385.00000000
6.90234375,1389.00000000
6.90625000,1385.00000000
6.91015625,1378.00000000
6.91406250,1377.00000000
6.91796875,1372.00000000
6.92187500,1372.00000000
6.92578125,1369.00000000
6.92968750,1364.00000000
6.93359375,1359.00000000
6.93750000,1359.00000000
6.94140625,1355.00000000
6.94531250,1346.00000000
6.94921875,1341.00000000
6.95312500,1349.00000000
6.95703125,1348.00000000
6.96093750,1346.00000000
6.96484375,1347.00000000
6.96875000,1345.00000000
6.97265625,1340.00000000
6.97656250,1345.00000000
6.98046875,1340.00000000
6.98437500,1335.00000000
6.98828125,1333.00000000
6.99218750,1337.00000000
6.99609375,1334.00000000
7.00000000,1332.00000000
7.00390625,1330.00000000
7.00781250,1324.00000000
7.01171875,1330.00000000
7.01562500,1334.00000000
7.01953125,1336.00000000
7.02343750,1358.00000000
7.02734375,1427.00000000
7.03125000,1464.00000000
7.03515625,1536.00000000
7.03906250,1573.00000000
7.04296875,1610.00000000
7.04687500,1626.00000000
7.05078125,1627.00000000
7.05468750,1618.00000000
7.05859375,1607.00000000
7.06250000,1580.00000000
7.06640625,1564.00000000
7.07031250,1503.00000000
7.07421875,1457.00000000
7.07812500,1401.00000000
7.08203125,1356.00000000
7.08593750,1319.00000000
7.08984375,1261.00000000
7.09375000,1227.00000000
7.09765625,1220.00000000
7.10156250,1223.00000000
7.10546875,1235.00000000
7.10937500,1239.00000000
7.11328125,1245.00000000
7.11718750,1256.00000000
7.12109375,1266.00000000
7.12500000,1283.00000000
7.12890625,1293.00000000
7.13281250,1298.00000000
7.13671875,1302.00000000
7.14062500,1313.00000000
7.14453125,1318.00000000
7.14843750,1318.00000000
7.15234375,1324.00000000
7.15625000,1327.00000000
7.16015625,1338.00000000
7.16406250,1345.00000000
7.16796875,1344.00000000
7.17187500,1340.00000000
7.17578125,1343.00000000
7.17968750,1354.00000000
7.18359375,1350.00000000
7.18750000,1351.00000000
7.19140625,1352.00000000
7.19531250,1355.00000000
7.19921875,1357.00000000
7.20312500,1358.00000000
7.20703125,1361.00000000
7.21093750,1358.00000000
7.21484375,1364.00000000
7.21875000,1370.00000000
7.22265625,1372.00000000
7.22656250,1365.00000000
7.23046875,1372.00000000
7.23437500,1376.00000000
7.23828125,1380.00000000
7.24218750,1380.00000000
7.24609375,1383.00000000
7.25000000,1388.00000000
7.25390625,1400.00000000
7.25781250,1403.00000000
7.26171875,1401.00000000
7.26562500,1400.00000000
7.26953125,1408.00000000
7.27343750,1405.00000000
7.27734375,1405.00000000
7.28125000,1402.00000000
7.28515625,1400.00000000
7.28906250,1401.00000000
7.29296875,1405.00000000
7.29687500,1397.00000000
7.30078125,1390.00000000
7.30468750,1384.00000000
7.30859375,1388.00000000
7.31250000,1375.00000000
7.31640625,1374.00000000
7.32031250,1362.00000000
7.32421875,1350.00000000
7.32812500,1349.00000000
7.33203125,1339.00000000
7.33593750,1327.00000000
7.33984375,1319.00000000
7.34375000,1320.00000000
7.34765625,1320.00000000
7.35156250,1318.00000000
7.35546875,1313.00000000
7.35937500,1311.00000000
7.36328125,1313.00000000
7.36718750,1320.00000000
7.37109375,1321.00000000
7.37500000,1318.00000000
7.37890625,1320.00000000
7.38281250,1330.00000000
7.38671875,1332.00000000
7.39062500,1325.00000000
7.39453125,1330.00000000
7.39843750,1334.00000000
7.40234375,1337.00000000
7.40625000,1342.00000000
7.41015625,1335.00000000
7.41406250,1330.00000000
7.41796875,1338.00000000
7.42187500,1342.00000000
7.42578125,1342.00000000
7.42968750,1341.00000000
7.43359375,1342.00000000
7.43750000,1342.00000000
7.44140625,1347.00000000
7.44531250,1347.00000000
7.44921875,1343.00000000
7.45312500,1345.00000000
7.45703125,1347.00000000
7.46093750,1349.00000000
7.46484375,1347.00000000
7.46875000,1346.00000000
7.47265625,1345.00000000
7.47656250,1349.00000000
7.48046875,1356.00000000
7.48437500,1348.00000000
7.48828125,1344.00000000
7.49218750,1352.00000000
7.49609375,1356.00000000
7.50000000,1349.00000000
7.50390625,1349.00000000
7.50781250,1346.00000000
7.51171875,1347.00000000
7.51562500,1350.00000000
7.51953125,1352.00000000
7.52343750,1346.00000000
7.52734375,1350.00000000
7.53125000,1349.00000000
7.53515625,1358.00000000
7.53906250,1351.00000000
7.54296875,1347.00000000
7.54687500,1352.00000000
7.55078125,1350.00000000
7.55468750,1356.00000000
7.55859375,1350.00000000
7.56250000,1348.00000000
7.56640625,1349.00000000
7.57031250,1357.00000000
7.57421875,1356.00000000
7.57812500,1353.00000000
7.58203125,1355.00000000
7.58593750,1353.00000000
7.58984375,1359.00000000
7.59375000,1355.00000000
7.59765625,1350.00000000
7.60156250,1353.00000000
7.60546875,1356.00000000
7.60937500,1367.00000000
7.61328125,1372.00000000
7.61718750,1378.00000000
7.62109375,1386.00000000
7.62500000,1387.00000000
7.62890625,1389.00000000
7.63281250,1387.00000000
7.63671875,1387.00000000
7.64062500,1381.00000000
7.64453125,1385.00000000
7.64843750,1378.00000000
7.65234375,1371.00000000
7.65625000,1369.00000000
7.66015625,1370.00000000
7.66406250,1366.00000000
7.66796875,1360.00000000
7.67187500,1348.00000000
7.67578125,1341.00000000
7.67968750,1344.00000000
7.68359375,1342.00000000
7.68750000,1341.00000000
7.69140625,1333.00000000
7.69531250,1340.00000000
7.69921875,1345.00000000
7.70312500,1345.00000000
7.70703125,1339.00000000
7.71093750,1337.00000000
7.71484375,1335.00000000
7.71875000,1338.00000000
7.72265625,1333.00000000
7.72656250,1332.00000000
7.73046875,1330.00000000
7.73437500,1335.00000000
7.73828125,1337.00000000
7.74218750,1334.00000000
7.74609375,1332.00000000
7.75000000,1330.00000000
7.75390625,1331.00000000
7.75781250,1336.00000000
7.76171875,1370.00000000
7.76562500,1439.00000000
7.76953125,1490.00000000
7.77343750,1554.00000000
7.77734375,1587.00000000
7.78125000,1617.00000000
7.78515625,1632.00000000
7.78906250,1626.00000000
7.79296875,1618.00000000
7.79687500,1596.00000000
7.80078125,1555.00000000
7.80468750,1525.00000000
7.80859375,1474.00000000
7.81250000,1430.00000000
7.81640625,1406.00000000
7.82031250,1396.00000000
7.82421875,1377.00000000
7.82812500,1334.00000000
7.83203125,1308.00000000
7.83593750,1252.00000000
7.83984375,1216.00000000
7.84375000,1217.00000000
7.84765625,1229.00000000
7.85156250,1236.00000000
7.85546875,1242.00000000
7.85937500,1248.00000000
7.86328125,1262.00000000
7.86718750,1274.00000000
7.87109375,1284.00000000
7.87500000,1282.00000000
7.87890625,1290.00000000
7.88281250,1302.00000000
7.88671875,1308.00000000
7.89062500,1309.00000000
7.89453125,1309.00000000
7.89843750,1314.00000000
7.90234375,1321.00000000
7.90625000,1330.00000000
7.91015625,1335.00000000
7.91406250,1333.00000000
7.91796875,1332.00000000
7.92187500,1341.00000000
7.92578125,1339.00000000
7.92968750,1339.00000000
7.93359375,1340.00000000
7.93750000,1341.00000000
7.94140625,1350.00000000
7.94531250,1352.00000000
7.94921875,1347.00000000
7.95312500,1349.00000000
7.95703125,1350.00000000
7.96093750,1363.00000000
7.96484375,1359.00000000
7.96875000,1362.00000000
7.97265625,1361.00000000
7.97656250,1365.00000000
7.98046875,1375.00000000
7.98437500,1372.00000000
7.98828125,1377.00000000
7.99218750,1382.00000000
7.99609375,1392.00000000
8.00000000,1397.00000000
8.00390625,1391.00000000
8.00781250,1395.00000000
8.01171875,1387.00000000
8.01562500,1394.00000000
8.01953125,1397.00000000
8.02343750,1391.00000000
8.02734375,1393.00000000
8.03125000,1395.00000000
8.03515625,1393.00000000
8.03906250,1388.00000000
8.04296875,1383.00000000
8.04687500,1380.00000000
8.05078125,1376.00000000
8.05468750,1374.00000000
8.05859375,1364.00000000
8.06250000,1353.00000000
8.06640625,1343.00000000
8.07031250,1338.00000000
8.07421875,1335.00000000
8.07812500,1325.00000000
8.08203125,1319.00000000
8.08593750,1320.00000000
8.08984375,1318.00000000
8.09375000,1327.00000000
8.09765625,1325.00000000
8.10156250,1323.00000000
8.10546875,1326.00000000
8.10937500,1335.00000000
8.11328125,1337.00000000
8.11718750,1335.00000000
8.12109375,1335.00000000
8.12500000,1339.00000000
8.12890625,1344.00000000
8.13281250,1348.00000000
8.13671875,1344.00000000
8.14062500,1342.00000000
8.14453125,1351.00000000
8.14843750,1353.00000000
8.15234375,1349.00000000
8.15625000,1347.00000000
8.16015625,1356.00000000
8.16406250,1355.00000000
8.16796875,1354.00000000
8.17187500,1359.00000000
8.17578125,1360.00000000
8.17968750,1354.00000000
8.18359375,1359.00000000
8.18750000,1363.00000000
8.19140625,1355.00000000
8.19531250,1357.00000000
8.19921875,1360.00000000
8.20312500,1365.00000000
8.20703125,1361.00000000
8.21093750,1360.00000000
8.21484375,1358.00000000
8.21875000,1363.00000000
8.22265625,1366.00000000
8.22656250,1361.00000000
8.23046875,1358.00000000
8.23437500,1366.00000000
8.23828125,1364.00000000
8.24218750,1364.00000000
8.24609375,1364.00000000
8.25000000,1362.00000000
8.25390625,1362.00000000
8.25781250,1370.00000000
8.26171875,1367.00000000
8.26562500,1362.00000000
8.26953125,1363.00000000
8.27343750,1363.00000000
8.27734375,1363.00000000
8.28125000,1359.00000000
8.28515625,1358.00000000
8.28906250,1357.00000000
8.29296875,1361.00000000
8.29687500,1362.00000000
8.30078125,1359.00000000
8.30468750,1359.00000000
8.30859375,1362.00000000
8.31250000,1364.00000000
8.31640625,1359.00000000
8.32031250,1356.00000000
8.32421875,1354.00000000
8.32812500,1358.00000000
8.33203125,1367.00000000
8.33593750,1369.00000000
8.33984375,1374.00000000
8.34375000,1374.00000000
8.34765625,1385.00000000
8.35156250,1387.00000000
8.35546875,1388.00000000
8.35937500,1386.00000000
8.36328125,1384.00000000
8.36718750,1393.00000000
8.37109375,1390.00000000
8.37500000,1382.00000000
8.37890625,1382.00000000
8.38281250,1385.00000000
8.38671875,1383.00000000
8.39062500,1375.00000000
8.39453125,1372.00000000
8.39843750,1369.00000000
8.40234375,1368.00000000
8.40625000,1359.00000000
8.41015625,1359.00000000
8.41406250,1346.00000000
8.41796875,1343.00000000
8.42187500,1343.00000000
8.42578125,1345.00000000
8.42968750,1341.00000000
8.43359375,1336.00000000
8.43750000,1333.00000000
8.44140625,1339.00000000
8.44531250,1337.00000000
8.44921875,1328.00000000
8.45312500,1322.00000000
8.45703125,1316.00000000
8.46093750,1324.00000000
8.46484375,1321.00000000
8.46875000,1322.00000000
8.47265625,1319.00000000
8.47656250,1324.00000000
8.48046875,1334.00000000
8.48437500,1392.00000000
8.48828125,1426.00000000
8.49218750,1481.00000000
8.49609375,1530.00000000
8.50000000,1565.00000000
8.50390625,1606.00000000
8.50781250,1618.00000000
8.51171875,1616.00000000
8.51562500,1609.00000000
8.51953125,1587.00000000
8.52343750,1568.00000000
8.52734375,1524.00000000
8.53125000,1468.00000000
8.53515625,1431.00000000
8.53906250,1373.00000000
8.54296875,1335.00000000
8.54687500,1260.00000000
8.55078125,1212.00000000
8.55468750,1204.00000000
8.55859375,1206.00000000
8.56250000,1207.00000000
8.56640625,1215.00000000
8.57031250,1227.00000000
8.57421875,1243.00000000
8.57812500,1255.00000000
8.58203125,1257.00000000
8.58593750,1265.00000000
8.58984375,1280.00000000
8.59375000,1286.00000000
8.59765625,1291.00000000
8.60156250,1294.00000000
8.60546875,1300.00000000
8.60937500,1307.00000000
8.61328125,1315.00000000
8.61718750,1312.00000000
8.62109375,1313.00000000
8.62500000,1316.00000000
8.62890625,1327.00000000
8.63281250,1331.00000000
8.63671875,1328.00000000
8.64062500,1327.00000000
8.64453125,1331.00000000
8.64843750,1334.00000000
8.65234375,1333.00000000
8.65625000,1331.00000000
8.66015625,1340.00000000
8.66406250,1335.00000000
8.66796875,1341.00000000
8.67187500,1344.00000000
8.67578125,1346.00000000
8.67968750,1344.00000000
8.68359375,1355.00000000
8.68750000,1357.00000000
8.69140625,1353.00000000
8.69531250,1355.00000000
8.69921875,1362.00000000
8.70312500,1363.00000000
8.70703125,1368.00000000
8.71093750,1372.00000000
8.71484375,1369.00000000
8.71875000,1375.00000000
8.72265625,1384.00000000
8.72656250,1386.00000000
8.73046875,1383.00000000
8.73437500,1388.00000000
8.73828125,1380.00000000
8.74218750,1383.00000000
8.74609375,1387.00000000
8.75000000,1386.00000000
8.75390625,1386.00000000
8.75781250,1393.00000000
8.76171875,1385.00000000
8.76562500,1384.00000000
8.76953125,1380.00000000
8.77343750,1375.00000000
8.77734375,1381.00000000
8.78125000,1373.00000000
8.78515625,1366.00000000
8.78906250,1360.00000000
8.79296875,1351.00000000
8.79687500,1349.00000000
8.80078125,1341.00000000
8.80468750,1328.00000000
8.80859375,1319.00000000
8.81250000,1314.00000000
8.81640625,1317.00000000
8.82031250,1313.00000000
8.82421875,1317.00000000
8.82812500,1314.00000000
8.83203125,1327.00000000
8.83593750,1327.00000000
8.83984375,1326.00000000
8.84375000,1333.00000000
8.84765625,1334.00000000
8.85156250,1338.00000000
8.85546875,1334.00000000
8.85937500,1332.00000000
8.86328125,1335.00000000
8.86718750,1337.00000000
8.87109375,1339.00000000
8.87500000,1344.00000000
8.87890625,1338.00000000
8.88281250,1346.00000000
8.88671875,1351.00000000
8.89062500,1351.00000000
8.89453125,1350.00000000
8.89843750,1349.00000000
8.90234375,1346.00000000
8.90625000,1351.00000000
8.91015625,1350.00000000
8.91406250,1355.00000000
8.91796875,1352.00000000
8.92187500,1351.00000000
8.92578125,1356.00000000
8.92968750,1353.00000000
8.93359375,1355.00000000
8.93750000,1354.00000000
8.94140625,1356.00000000
8.94531250,1363.00000000
8.94921875,1365.00000000
8.95312500,1359.00000000
8.95703125,1358.00000000
8.96093750,1361.00000000
8.96484375,1367.00000000
8.96875000,1363.00000000
8.97265625,1364.00000000
8.97656250,1367.00000000
8.98046875,1367.00000000
8.98437500,1369.00000000
8.98828125,1362.00000000
8.99218750,1358.00000000
8.99609375,1366.00000000
9.00000000,1368.00000000
9.00390625,1369.00000000
9.00781250,1362.00000000
9.01171875,1361.00000000
9.01562500,1362.00000000
9.01953125,1367.00000000
9.02343750,1366.00000000
9.02734375,1362.00000000
9.03125000,1362.00000000
9.03515625,1368.00000000
9.03906250,1366.00000000
9.04296875,1364.00000000
9.04687500,1362.00000000
9.05078125,1358.00000000
9.05468750,1367.00000000
9.05859375,1368.00000000
9.06250000,1370.00000000
9.06640625,1366.00000000
9.07031250,1374.00000000
9.07421875,1384.00000000
9.07812500,1394.00000000
9.08203125,1390.00000000
9.08593750,1391.00000000
9.08984375,1393.00000000
9.09375000,1395.00000000
9.09765625,1400.00000000
9.10156250,1395.00000000
9.10546875,1389.00000000
9.10937500,1395.00000000
9.11328125,1396.00000000
9.11718750,1388.00000000
9.12109375,1379.00000000
9.12500000,1377.00000000
9.12890625,1376.00000000
9.13281250,1370.00000000
9.13671875,1363.00000000
9.14062500,1356.00000000
9.14453125,1353.00000000
9.14843750,1354.00000000
9.15234375,1354.00000000
9.15625000,1351.00000000
9.16015625,1343.00000000
9.16406250,1348.00000000
9.16796875,1348.00000000
9.17187500,1341.00000000
9.17578125,1342.00000000
9.17968750,1341.00000000
9.18359375,1343.00000000
9.18750000,1345.00000000
9.19140625,1342.00000000
9.19531250,1338.00000000
9.19921875,1339.00000000
9.20312500,1341.00000000
9.20703125,1342.00000000
9.21093750,1337.00000000
9.21484375,1332.00000000
9.21875000,1339.00000000
9.22265625,1390.00000000
9.22656250,1408.00000000
9.23046875,1476.00000000
9.23437500,1524.00000000
9.23828125,1569.00000000
9.24218750,1618.00000000
9.24609375,1633.00000000
9.25000000,1630.00000000
9.25390625,1616.00000000
9.25781250,1606.00000000
9.26171875,1591.00000000
9.26562500,1552.00000000
9.26953125,1499.00000000
9.27343750,1472.00000000
9.27734375,1459.00000000
9.28125000,1450.00000000
9.28515625,1386.00000000
9.28906250,1347.00000000
9.29296875,1278.00000000
9.29687500,1229.00000000
9.30078125,1206.00000000
9.30468750,1194.00000000
9.30859375,1199.00000000
9.31250000,1210.00000000
9.31640625,1230.00000000
9.32031250,1237.00000000
9.32421875,1245.00000000
9.32812500,1256.00000000
9.33203125,1272.00000000
9.33593750,1279.00000000
9.33984375,1283.00000000
9.34375000,1284.00000000
9.34765625,1287.00000000
9.35156250,1300.00000000
9.35546875,1306.00000000
9.35937500,1304.00000000
9.36328125,1304.00000000
9.36718750,1307.00000000
9.37109375,1317.00000000
9.37500000,1326.00000000
9.37890625,1323.00000000
9.38281250,1326.00000000
9.38671875,1328.00000000
9.39062500,1335.00000000
9.39453125,1339.00000000
9.39843750,1332.00000000
9.40234375,1334.00000000
9.40625000,1336.00000000
9.41015625,1344.00000000
9.41406250,1343.00000000
9.41796875,1344.00000000
9.42187500,1342.00000000
9.42578125,1351.00000000
9.42968750,1352.00000000
9.43359375,1352.00000000
9.43750000,1355.00000000
9.44140625,1363.00000000
9.44531250,1370.00000000
9.44921875,1369.00000000
9.45312500,1371.00000000
9.45703125,1368.00000000
9.46093750,1370.00000000
9.46484375,1381.00000000
9.46875000,1384.00000000
9.47265625,1379.00000000
9.47656250,1385.00000000
9.48046875,1388.00000000
9.48437500,1387.00000000
9.48828125,1385.00000000
9.49218750,1383.00000000
9.49609375,1381.00000000
9.50000000,1388.00000000
9.50390625,1386.00000000
9.50781250,1377.00000000
9.51171875,1371.00000000
9.51562500,1373.00000000
9.51953125,1361.00000000
9.52343750,1353.00000000
9.52734375,1336.00000000
9.53125000,1327.00000000
9.53515625,1320.00000000
9.53906250,1317.00000000
9.54296875,1309.00000000
9.54687500,1309.00000000
9.55078125,1307.00000000
9.55468750,1312.00000000
9.55859375,1315.00000000
9.56250000,1320.00000000
9.56640625,1313.00000000
9.57031250,1318.00000000
9.57421875,1326.00000000
9.57812500,1329.00000000
9.58203125,1324.00000000
9.58593750,1324.00000000
9.58984375,1328.00000000
9.59375000,1329.00000000
9.59765625,1334.00000000
9.60156250,1327.00000000
9.60546875,1332.00000000
9.60937500,1330.00000000
9.61328125,1334.00000000
9.61718750,1339.00000000
9.62109375,1330.00000000
9.62500000,1335.00000000
9.62890625,1336.00000000
9.63281250,1343.00000000
9.63671875,1344.00000000
9.64062500,1337.00000000
9.64453125,1339.00000000
9.64843750,1344.00000000
9.65234375,1349.00000000
9.65625000,1348.00000000
9.66015625,1340.00000000
9.66406250,1342.00000000
9.66796875,1350.00000000
9.67187500,1346.00000000
9.67578125,1350.00000000
9.67968750,1349.00000000
9.68359375,1350.00000000
9.68750000,1351.00000000
9.69140625,1357.00000000
9.69531250,1357.00000000
9.69921875,1352.00000000
9.70312500,1355.00000000
9.70703125,1361.00000000
9.71093750,1358.00000000
9.71484375,1363.00000000
9.71875000,1359.00000000
9.72265625,1366.00000000
9.72656250,1367.00000000
9.73046875,1365.00000000
9.73437500,1362.00000000
9.73828125,1365.00000000
9.74218750,1364.00000000
9.74609375,1359.00000000
9.75000000,1359.00000000
9.75390625,1364.00000000
9.75781250,1362.00000000
9.76171875,1367.00000000
9.76562500,1360.00000000
9.76953125,1362.00000000
9.77343750,1365.00000000
9.77734375,1372.00000000
9.78125000,1371.00000000
9.78515625,1369.00000000
9.78906250,1370.00000000
9.79296875,1372.00000000
9.79687500,1382.00000000
9.80078125,1387.00000000
9.80468750,1387.00000000
9.80859375,1392.00000000
9.81250000,1393.00000000
9.81640625,1394.00000000
9.82031250,1394.00000000
9.82421875,1394.00000000
9.82812500,1394.00000000
9.83203125,1395.00000000
9.83593750,1401.00000000
9.83984375,1398.00000000
9.84375000,1397.00000000
9.84765625,1392.00000000
9.85156250,1390.00000000
9.85546875,1382.00000000
9.85937500,1373.00000000
9.86328125,1369.00000000
9.86718750,1367.00000000
9.87109375,1367.00000000
9.87500000,1365.00000000
9.87890625,1352.00000000
9.88281250,1353.00000000
9.88671875,1352.00000000
9.89062500,1349.00000000
9.89453125,1342.00000000
9.89843750,1339.00000000
9.90234375,1337.00000000
9.90625000,1339.00000000
9.91015625,1343.00000000
9.91406250,1346.00000000
9.91796875,1340.00000000
9.92187500,1338.00000000
9.92578125,1338.00000000
9.92968750,1337.00000000
9.93359375,1332.00000000
9.93750000,1326.00000000
9.94140625,1320.00000000
9.94531250,1328.00000000
9.94921875,1354.00000000
9.95312500,1387.00000000
9.95703125,1418.00000000
9.96093750,1484.00000000
9.96484375,1526.00000000
9.96875000,1583.00000000
9.97265625,1612.00000000
9.97656250,1619.00000000
9.98046875,1611.00000000
9.98437500,1604.00000000
9.98828125,1590.00000000
9.99218750,1578.00000000
9.99609375,1564.00000000
10.00000000,1554.00000000
10.00390625,1510.00000000
10.00781250,1459.00000000
10.01171875,1416.00000000
10.01562500,1354.00000000
10.01953125,1325.00000000
10.02343750,1241.00000000
10.02734375,1197.00000000
10.03125000,1183.00000000
10.03515625,1184.00000000
10.03906250,1193.00000000
10.04296875,1210.00000000
10.04687500,1214.00000000
10.05078125,1227.00000000
10.05468750,1242.00000000
10.05859375,1256.00000000
10.06250000,1257.00000000
10.06640625,1269.00000000
10.07031250,1269.00000000
10.07421875,1276.00000000
10.07812500,1285.00000000
10.08203125,1290.00000000
10.08593750,1290.00000000
10.08984375,1298.00000000
10.09375000,1299.00000000
10.09765625,1311.00000000
10.10156250,1313.00000000
10.10546875,1313.00000000
10.10937500,1315.00000000
10.11328125,1329.00000000
10.11718750,1331.00000000
10.12109375,1330.00000000
10.12500000,1331.00000000
10.12890625,1336.00000000
10.13281250,1340.00000000
10.13671875,1338.00000000
10.14062500,1342.00000000
10.14453125,1338.00000000
10.14843750,1342.00000000
10.15234375,1350.00000000
10.15625000,1355.00000000
10.16015625,1358.00000000
10.16406250,1356.00000000
10.16796875,1365.00000000
10.17187500,1363.00000000
10.17578125,1366.00000000
10.17968750,1366.00000000
10.18359375,1370.00000000
10.18750000,1377.00000000
10.19140625,1382.00000000
10.19531250,1388.00000000
10.19921875,1388.00000000
10.20312500,1395.00000000
10.20703125,1397.00000000
10.21093750,1398.00000000
10.21484375,1395.00000000
10.21875000,1396.00000000
10.22265625,1393.00000000
10.22656250,1399.00000000
10.23046875,1391.00000000
10.23437500,1385.00000000
10.23828125,1381.00000000
10.24218750,1384.00000000
10.24609375,1373.00000000
10.25000000,1365.00000000
10.25390625,1355.00000000
10.25781250,1351.00000000
10.26171875,1357.00000000
10.26562500,1350.00000000
10.26953125,1340.00000000
10.27343750,1330.00000000
10.27734375,1329.00000000
10.28125000,1326.00000000
10.28515625,1323.00000000
10.28906250,1318.00000000
10.29296875,1319.00000000
10.29687500,1325.00000000
10.30078125,1329.00000000
10.30468750,1334.00000000
10.30859375,1333.00000000
10.31250000,1336.00000000
10.31640625,1343.00000000
10.32031250,1342.00000000
10.32421875,1337.00000000
10.32812500,1339.00000000
10.33203125,1341.00000000
10.33593750,1346.00000000
10.33984375,1349.00000000
10.34375000,1354.00000000
10.34765625,1350.00000000
10.35156250,1357.00000000
10.35546875,1359.00000000
10.35937500,1361.00000000
10.36328125,1357.00000000
10.36718750,1353.00000000
10.37109375,1354.00000000
10.37500000,1356.00000000
10.37890625,1353.00000000
10.38281250,1357.00000000
10.38671875,1355.00000000
10.39062500,1363.00000000
10.39453125,1363.00000000
10.39843750,1362.00000000
10.40234375,1356.00000000
10.40625000,1358.00000000
10.41015625,1358.00000000
10.41406250,1361.00000000
10.41796875,1363.00000000
10.42187500,1364.00000000
10.42578125,1362.00000000
10.42968750,1368.00000000
10.43359375,1364.00000000
10.43750000,1363.00000000
10.44140625,1364.00000000
10.44531250,1363.00000000
10.44921875,1368.00000000
10.45312500,1367.00000000
10.45703125,1360.00000000
10.46093750,1359.00000000
10.46484375,1368.00000000
10.46875000,1367.00000000
10.47265625,1366.00000000
10.47656250,1364.00000000
10.48046875,1365.00000000
10.48437500,1363.00000000
10.48828125,1363.00000000
10.49218750,1355.00000000
10.49609375,1357.00000000
10.50000000,1356.00000000
10.50390625,1367.00000000
10.50781250,1365.00000000
10.51171875,1355.00000000
10.51562500,1359.00000000
10.51953125,1355.00000000
10.52343750,1362.00000000
10.52734375,1364.00000000
10.53125000,1371.00000000
10.53515625,1373.00000000
10.53906250,1381.00000000
10.54296875,1380.00000000
10.54687500,1379.00000000
10.55078125,1381.00000000
10.55468750,1382.00000000
10.55859375,1391.00000000
10.56250000,1391.00000000
10.56640625,1385.00000000
10.57031250,1389.00000000
10.57421875,1379.00000000
10.57812500,1382.00000000
10.58203125,1374.00000000
10.58593750,1364.00000000
10.58984375,1351.00000000
10.59375000,1344.00000000
10.59765625,1346.00000000
10.60156250,1338.00000000
10.60546875,1335.00000000
10.60937500,1332.00000000
10.61328125,1334.00000000
10.61718750,1335.00000000
10.62109375,1333.00000000
10.62500000,1332.00000000
10.62890625,1329.00000000
10.63281250,1339.00000000
10.63671875,1336.00000000
10.64062500,1333.00000000
10.64453125,1329.00000000
10.64843750,1330.00000000
10.65234375,1330.00000000
10.65625000,1327.00000000
10.66015625,1323.00000000
10.66406250,1323.00000000
10.66796875,1327.00000000
10.67187500,1324.00000000
10.67578125,1323.00000000
10.67968750,1370.00000000
10.68359375,1406.00000000
10.68750000,1464.00000000
10.69140625,1522.00000000
10.69531250,1558.00000000
10.69921875,1611.00000000
10.70312500,1633.00000000
10.70703125,1629.00000000
10.71093750,1622.00000000
10.71484375,1609.00000000
10.71875000,1589.00000000
10.72265625,1581.00000000
10.72656250,1566.00000000
10.73046875,1548.00000000
10.73437500,1488.00000000
10.73828125,1449.00000000
10.74218750,1396.00000000
10.74609375,1341.00000000
10.75000000,1299.00000000
10.75390625,1233.00000000
10.75781250,1199.00000000
10.76171875,1199.00000000
10.76562500,1209.00000000
10.76953125,1217.00000000
10.77343750,1227.00000000
10.77734375,1236.00000000
10.78125000,1249.00000000
10.78515625,1260.00000000
10.78906250,1270.00000000
10.79296875,1274.00000000
10.79687500,1287.00000000
10.80078125,1304.00000000
10.80468750,1311.00000000
10.80859375,1309.00000000
10.81250000,1315.00000000
10.81640625,1326.00000000
10.82031250,1326.00000000
10.82421875,1325.00000000
10.82812500,1330.00000000
10.83203125,1326.00000000
10.83593750,1338.00000000
10.83984375,1346.00000000
10.84375000,1350.00000000
10.84765625,1343.00000000
10.85156250,1344.00000000
10.85546875,1354.00000000
10.85937500,1357.00000000
10.86328125,1354.00000000
10.86718750,1355.00000000
10.87109375,1357.00000000
10.87500000,1354.00000000
10.87890625,1358.00000000
10.88281250,1360.00000000
10.88671875,1360.00000000
10.89062500,1363.00000000
10.89453125,1371.00000000
10.89843750,1370.00000000
10.90234375,1372.00000000
10.90625000,1373.00000000
10.91015625,1377.00000000
10.91406250,1377.00000000
10.91796875,1380.00000000
10.92187500,1379.00000000
10.92578125,1385.00000000
10.92968750,1394.00000000
10.93359375,1392.00000000
10.93750000,1391.00000000
10.94140625,1390.00000000
10.94531250,1388.00000000
10.94921875,1395.00000000
10.95312500,1388.00000000
10.95703125,1387.00000000
10.96093750,1384.00000000
10.96484375,1384.00000000
10.96875000,1378.00000000
10.97265625,1380.00000000
10.97656250,1361.00000000
10.98046875,1356.00000000
10.98437500,1351.00000000
10.98828125,1353.00000000
10.99218750,1347.00000000
10.99609375,1337.00000000
11.00000000,1330.00000000
11.00390625,1331.00000000
11.00781250,1327.00000000
11.01171875,1326.00000000
11.01562500,1316.00000000
11.01953125,1314.00000000
11.02343750,1321.00000000
11.02734375,1324.00000000
11.03125000,1327.00000000
11.03515625,1324.00000000
11.03906250,1330.00000000
11.04296875,1332.00000000
11.04687500,1329.00000000
11.05078125,1329.00000000
11.05468750,1330.00000000
11.05859375,1334.00000000
11.06250000,1340.00000000
11.06640625,1334.00000000
11.07031250,1335.00000000
11.07421875,1333.00000000
11.07812500,1345.00000000
11.08203125,1344.00000000
11.08593750,1341.00000000
11.08984375,1341.00000000
11.09375000,1343.00000000
11.09765625,1350.00000000
11.10156250,1350.00000000
11.10546875,1347.00000000
11.10937500,1345.00000000
11.11328125,1350.00000000
11.11718750,1352.00000000
11.12109375,1355.00000000
11.12500000,1356.00000000
11.12890625,1353.00000000
11.13281250,1349.00000000
11.13671875,1356.00000000
11.14062500,1354.00000000
11.14453125,1355.00000000
11.14843750,1354.00000000
11.15234375,1357.00000000
11.15625000,1358.00000000
11.16015625,1353.00000000
11.16406250,1350.00000000
11.16796875,1357.00000000
11.17187500,1357.00000000
11.17578125,1355.00000000
11.17968750,1356.00000000
11.18359375,1354.00000000
11.18750000,1354.00000000
11.19140625,1360.00000000
11.19531250,1356.00000000
11.19921875,1352.00000000
11.20312500,1351.00000000
11.20703125,1359.00000000
11.21093750,1352.00000000
11.21484375,1352.00000000
11.21875000,1353.00000000
11.22265625,1356.00000000
11.22656250,1358.00000000
11.23046875,1354.00000000
11.23437500,1355.00000000
11.23828125,1351.00000000
11.24218750,1359.00000000
11.24609375,1359.00000000
11.25000000,1361.00000000
11.25390625,1355.00000000
11.25781250,1358.00000000
11.26171875,1360.00000000
11.26562500,1374.00000000
11.26953125,1378.00000000
11.27343750,1376.00000000
11.27734375,1380.00000000
11.28125000,1384.00000000
11.28515625,1388.00000000
11.28906250,1391.00000000
11.29296875,1384.00000000
11.29687500,1382.00000000
11.30078125,1385.00000000
11.30468750,1383.00000000
11.30859375,1372.00000000
11.31250000,1370.00000000
11.31640625,1370.00000000
11.32031250,1363.00000000
11.32421875,1362.00000000
11.32812500,1351.00000000
11.33203125,1345.00000000
11.33593750,1348.00000000
11.33984375,1344.00000000
11.34375000,1344.00000000
11.34765625,1338.00000000
11.35156250,1338.00000000
11.35546875,1342.00000000
11.35937500,1341.00000000
11.36328125,1334.00000000
11.36718750,1334.00000000
11.37109375,1336.00000000
11.37500000,1333.00000000
11.37890625,1334.00000000
11.38281250,1327.00000000
11.38671875,1325.00000000
11.39062500,1328.00000000
11.39453125,1328.00000000
11.39843750,1329.00000000
11.40234375,1321.00000000
11.40625000,1334.00000000
11.41015625,1388.00000000
11.41406250,1419.00000000
11.41796875,1475.00000000
11.42187500,1514.00000000
11.42578125,1561.00000000
11.42968750,1608.00000000
11.43359375,1619.00000000
11.43750000,1618.00000000
11.44140625,1607.00000000
11.44531250,1594.00000000
11.44921875,1589.00000000
11.45312500,1570.00000000
11.45703125,1556.00000000
11.46093750,1524.00000000
11.46484375,1466.00000000
11.46875000,1424.00000000
11.47265625,1366.00000000
11.47656250,1330.00000000
11.48046875,1262.00000000
11.48437500,1211.00000000
11.48828125,1192.00000000
11.49218750,1196.00000000
11.49609375,1198.00000000
11.50000000,1210.00000000
11.50390625,1225.00000000
11.50781250,1239.00000000
11.51171875,1245.00000000
11.51562500,1255.00000000
11.51953125,1268.00000000
11.52343750,1275.00000000
11.52734375,1282.00000000
11.53125000,1282.00000000
11.53515625,1295.00000000
11.53906250,1294.00000000
11.54296875,1308.00000000
11.54687500,1315.00000000
11.55078125,1314.00000000
11.55468750,1318.00000000
11.55859375,1320.00000000
11.56250000,1327.00000000
11.56640625,1330.00000000
11.57031250,1332.00000000
11.57421875,1334.00000000
11.57812500,1345.00000000
11.58203125,1347.00000000
11.58593750,1345.00000000
11.58984375,1347.00000000
11.59375000,1348.00000000
11.59765625,1356.00000000
11.60156250,1358.00000000
11.60546875,1352.00000000
11.60937500,1357.00000000
11.61328125,1358.00000000
11.61718750,1362.00000000
11.62109375,1364.00000000
11.62500000,1368.00000000
11.62890625,1364.00000000
11.63281250,1365.00000000
11.63671875,1376.00000000
11.64062500,1377.00000000
11.64453125,1382.00000000
11.64843750,1383.00000000
11.65234375,1393.00000000
11.65625000,1396.00000000
11.66015625,1398.00000000
11.66406250,1396.00000000
11.66796875,1403.00000000
11.67187500,1404.00000000
11.67578125,1403.00000000
11.67968750,1396.00000000
11.68359375,1396.00000000
11.68750000,1393.00000000
11.69140625,1388.00000000
11.69531250,1389.00000000
11.69921875,1385.00000000
11.70312500,1375.00000000
11.70703125,1376.00000000
11.71093750,1377.00000000
11.71484375,1367.00000000
11.71875000,1359.00000000
11.72265625,1346.00000000
11.72656250,1337.00000000
11.73046875,1336.00000000
11.73437500,1324.00000000
11.73828125,1320.00000000
11.74218750,1323.00000000
11.74609375,1325.00000000
11.75000000,1325.00000000
11.75390625,1323.00000000
11.75781250,1320.00000000
11.76171875,1327.00000000
11.76562500,1329.00000000
11.76953125,1330.00000000
11.77343750,1333.00000000
11.77734375,1331.00000000
11.78125000,1331.00000000
11.78515625,1339.00000000
11.78906250,1337.00000000
11.79296875,1339.00000000
11.79687500,1338.00000000
11.80078125,1341.00000000
11.80468750,1348.00000000
11.80859375,1347.00000000
11.81250000,1349.00000000
11.81640625,1347.00000000
11.82031250,1355.00000000
11.82421875,1352.00000000
11.82812500,1352.00000000
11.83203125,1351.00000000
11.83593750,1347.00000000
11.83984375,1356.00000000
11.84375000,1357.00000000
11.84765625,1358.00000000
11.85156250,1352.00000000
11.85546875,1349.00000000
11.85937500,1357.00000000
11.86328125,1357.00000000
11.86718750,1354.00000000
11.87109375,1353.00000000
11.87500000,1351.00000000
11.87890625,1357.00000000
11.88281250,1355.00000000
11.88671875,1349.00000000
11.89062500,1350.00000000
11.89453125,1354.00000000
11.89843750,1354.00000000
11.90234375,1349.00000000
11.90625000,1348.00000000
11.91015625,1355.00000000
11.91406250,1356.00000000
11.91796875,1358.00000000
11.92187500,1350.00000000
11.92578125,1348.00000000
11.92968750,1353.00000000
11.93359375,1354.00000000
11.93750000,1357.00000000
11.94140625,1349.00000000
11.94531250,1347.00000000
11.94921875,1351.00000000
11.95312500,1354.00000000
11.95703125,1351.00000000
11.96093750,1344.00000000
11.96484375,1350.00000000
11.96875000,1352.00000000
11.97265625,1352.00000000
11.97656250,1350.00000000
11.98046875,1350.00000000
11.98437500,1348.00000000
11.98828125,1352.00000000
11.99218750,1359.00000000
11.99609375,1359.00000000
12.00000000,1364.00000000
12.00390625,1368.00000000
12.00781250,1376.00000000
12.01171875,1378.00000000
12.01562500,1374.00000000
12.01953125,1375.00000000
12.02343750,1379.00000000
12.02734375,1382.00000000
12.03125000,1381.00000000
12.03515625,1370.00000000
12.03906250,1367.00000000
12.04296875,1368.00000000
12.04687500,1361.00000000
12.05078125,1352.00000000
12.05468750,1347.00000000
12.05859375,1336.00000000
12.06250000,1333.00000000
12.06640625,1334.00000000
12.07031250,1336.00000000
12.07421875,1332.00000000
12.07812500,1331.00000000
12.08203125,1340.00000000
12.08593750,1339.00000000
12.08984375,1335.00000000
12.09375000,1338.00000000
12.09765625,1335.00000000
12.10156250,1337.00000000
12.10546875,1330.00000000
12.10937500,1328.00000000
12.11328125,1324.00000000
12.11718750,1326.00000000
12.12109375,1329.00000000
12.12500000,1328.00000000
12.12890625,1320.00000000
12.13281250,1318.00000000
12.13671875,1327.00000000
12.14062500,1328.00000000
12.14453125,1354.00000000
12.14843750,1443.00000000
12.15234375,1495.00000000
12.15625000,1511.00000000
12.16015625,1510.00000000
12.16406250,1544.00000000
12.16796875,1582.00000000
12.17187500,1597.00000000
12.17578125,1602.00000000
12.17968750,1597.00000000
12.18359375,1587.00000000
12.18750000,1574.00000000
12.19140625,1535.00000000
12.19531250,1506.00000000
12.19921875,1458.00000000
12.20312500,1398.00000000
12.20703125,1353.00000000
12.21093750,1263.00000000
12.21484375,1214.00000000
12.21875000,1200.00000000
12.22265625,1193.00000000
12.22656250,1205.00000000
12.23046875,1219.00000000
12.23437500,1226.00000000
12.23828125,1234.00000000
12.24218750,1241.00000000
12.24609375,1252.00000000
12.25000000,1262.00000000
12.25390625,1275.00000000
12.25781250,1280.00000000
12.26171875,1284.00000000
12.26562500,1299.00000000
12.26953125,1307.00000000
12.27343750,1307.00000000
12.27734375,1309.00000000
12.28125000,1314.00000000
12.28515625,1316.00000000
12.28906250,1330.00000000
12.29296875,1332.00000000
12.29687500,1337.00000000
12.30078125,1342.00000000
12.30468750,1349.00000000
12.30859375,1345.00000000
12.31250000,1350.00000000
12.31640625,1352.00000000
12.32031250,1357.00000000
12.32421875,1356.00000000
12.32812500,1356.00000000
12.33203125,1359.00000000
12.33593750,1361.00000000
12.33984375,1364.00000000
12.34375000,1370.00000000
12.34765625,1368.00000000
12.35156250,1371.00000000
12.35546875,1373.00000000
12.35937500,1380.00000000
12.36328125,1389.00000000
12.36718750,1388.00000000
12.37109375,1391.00000000
12.37500000,1393.00000000
12.37890625,1401.00000000
12.38281250,1401.00000000
12.38671875,1405.00000000
12.39062500,1404.00000000
12.39453125,1405.00000000
12.39843750,1411.00000000
12.40234375,1407.00000000
12.40625000,1404.00000000
12.41015625,1406.00000000
12.41406250,1399.00000000
12.41796875,1397.00000000
12.42187500,1396.00000000
12.42578125,1392.00000000
12.42968750,1395.00000000
12.43359375,1391.00000000
12.43750000,1382.00000000
12.44140625,1371.00000000
12.44531250,1370.00000000
12.44921875,1368.00000000
12.45312500,1363.00000000
12.45703125,1356.00000000
12.46093750,1345.00000000
12.46484375,1338.00000000
12.46875000,1334.00000000
12.47265625,1332.00000000
12.47656250,1329.00000000
12.48046875,1330.00000000
12.48437500,1326.00000000
12.48828125,1333.00000000
12.49218750,1334.00000000
12.49609375,1334.00000000
12.50000000,1333.00000000
12.50390625,1332.00000000
12.50781250,1340.00000000
12.51171875,1338.00000000
12.51562500,1339.00000000
12.51953125,1339.00000000
12.52343750,1339.00000000
12.52734375,1345.00000000
12.53125000,1348.00000000
12.53515625,1342.00000000
12.53906250,1342.00000000
12.54296875,1345.00000000
12.54687500,1351.00000000
12.55078125,1351.00000000
12.55468750,1346.00000000
12.55859375,1346.00000000
12.56250000,1348.00000000
12.56640625,1349.00000000
12.57031250,1350.00000000
12.57421875,1350.00000000
12.57812500,1351.00000000
12.58203125,1351.00000000
12.58593750,1360.00000000
12.58984375,1350.00000000
12.59375000,1350.00000000
12.59765625,1352.00000000
12.60156250,1358.00000000
12.60546875,1350.00000000
12.60937500,1354.00000000
12.61328125,1350.00000000
12.61718750,1351.00000000
12.62109375,1356.00000000
12.62500000,1356.00000000
12.62890625,1349.00000000
12.63281250,1353.00000000
12.63671875,1350.00000000
12.64062500,1355.00000000
12.64453125,1357.00000000
12.64843750,1351.00000000
12.65234375,1351.00000000
12.65625000,1359.00000000
12.66015625,1356.00000000
12.66406250,1352.00000000
12.66796875,1351.00000000
12.67187500,1350.00000000
12.67578125,1356.00000000
12.67968750,1357.00000000
12.68359375,1351.00000000
12.68750000,1353.00000000
12.69140625,1352.00000000
12.69531250,1358.00000000
12.69921875,1355.00000000
12.70312500,1354.00000000
12.70703125,1352.00000000
12.71093750,1356.00000000
12.71484375,1360.00000000
12.71875000,1359.00000000
12.72265625,1357.00000000
12.72656250,1369.00000000
12.73046875,1376.00000000
12.73437500,1371.00000000
12.73828125,1385.00000000
12.74218750,1383.00000000
12.74609375,1386.00000000
12.75000000,1389.00000000
12.75390625,1390.00000000
12.75781250,1388.00000000
12.76171875,1389.00000000
12.76562500,1387.00000000
12.76953125,1392.00000000
12.77343750,1387.00000000
12.77734375,1378.00000000
12.78125000,1381.00000000
12.78515625,1384.00000000
12.78906250,1376.00000000
12.79296875,1366.00000000
12.79687500,1361.00000000
12.80078125,1362.00000000
12.80468750,1357.00000000
12.80859375,1355.00000000
12.81250000,1352.00000000
12.81640625,1344.00000000
12.82031250,1339.00000000
12.82421875,1346.00000000
12.82812500,1346.00000000
12.83203125,1339.00000000
12.83593750,1338.00000000
12.83984375,1342.00000000
12.84375000,1339.00000000
12.84765625,1338.00000000
12.85156250,1332.00000000
12.85546875,1327.00000000
12.85937500,1333.00000000
12.86328125,1338.00000000
12.86718750,1331.00000000
12.87109375,1327.00000000
12.87500000,1327.00000000
12.87890625,1326.00000000
12.88281250,1349.00000000
12.88671875,1414.00000000
12.89062500,1454.00000000
12.89453125,1524.00000000
12.89843750,1570.00000000
12.90234375,1601.00000000
12.90625000,1624.00000000
12.91015625,1625.00000000
12.91406250,1618.00000000
12.91796875,1603.00000000
12.92187500,1579.00000000
12.92578125,1558.00000000
12.92968750,1501.00000000
12.93359375,1457.00000000
12.93750000,1405.00000000
12.94140625,1343.00000000
12.94531250,1314.00000000
12.94921875,1307.00000000
12.95312500,1307.00000000
12.95703125,1262.00000000
12.96093750,1224.00000000
12.96484375,1213.00000000
12.96875000,1216.00000000
12.97265625,1227.00000000
12.97656250,1240.00000000
12.98046875,1245.00000000
12.98437500,1256.00000000
12.98828125,1262.00000000
12.99218750,1279.00000000
12.99609375,1286.00000000
13.00000000,1294.00000000
13.00390625,1293.00000000
13.00781250,1300.00000000
13.01171875,1310.00000000
13.01562500,1311.00000000
13.01953125,1308.00000000
13.02343750,1311.00000000
13.02734375,1320.00000000
13.03125000,1326.00000000
13.03515625,1324.00000000
13.03906250,1328.00000000
13.04296875,1325.00000000
13.04687500,1335.00000000
13.05078125,1338.00000000
13.05468750,1335.00000000
13.05859375,1335.00000000
13.06250000,1339.00000000
13.06640625,1341.00000000
13.07031250,1342.00000000
13.07421875,1345.00000000
13.07812500,1344.00000000
13.08203125,1352.00000000
13.08593750,1358.00000000
13.08984375,1354.00000000
13.09375000,1359.00000000
13.09765625,1367.00000000
13.10156250,1370.00000000
13.10546875,1365.00000000
13.10937500,1373.00000000
13.11328125,1378.00000000
13.11718750,1381.00000000
13.12109375,1390.00000000
13.12500000,1391.00000000
13.12890625,1394.00000000
13.13281250,1389.00000000
13.13671875,1387.00000000
13.14062500,1390.00000000
13.14453125,1386.00000000
13.14843750,1381.00000000
13.15234375,1382.00000000
13.15625000,1383.00000000
13.16015625,1386.00000000
13.16406250,1383.00000000
13.16796875,1382.00000000
13.17187500,1374.00000000
13.17578125,1377.00000000
13.17968750,1367.00000000
13.18359375,1352.00000000
13.18750000,1345.00000000
13.19140625,1334.00000000
13.19531250,1333.00000000
13.19921875,1329.00000000
13.20312500,1323.00000000
13.20703125,1314.00000000
13.21093750,1317.00000000
13.21484375,1324.00000000
13.21875000,1327.00000000
13.22265625,1323.00000000
13.22656250,1323.00000000
13.23046875,1327.00000000
13.23437500,1332.00000000
13.23828125,1334.00000000
13.24218750,1330.00000000
13.24609375,1330.00000000
13.25000000,1334.00000000
13.25390625,1336.00000000
13.25781250,1335.00000000
13.26171875,1338.00000000
13.26562500,1346.00000000
13.26953125,1351.00000000
13.27343750,1351.00000000
13.27734375,1346.00000000
13.28125000,1348.00000000
13.28515625,1349.00000000
13.28906250,1353.00000000
13.29296875,1351.00000000
13.29687500,1352.00000000
13.30078125,1343.00000000
13.30468750,1351.00000000
13.30859375,1349.00000000
13.31250000,1351.00000000
13.31640625,1343.00000000
13.32031250,1343.00000000
13.32421875,1349.00000000
13.32812500,1353.00000000
13.33203125,1347.00000000
13.33593750,1345.00000000
13.33984375,1346.00000000
13.34375000,1343.00000000
13.34765625,1347.00000000
13.35156250,1351.00000000
13.35546875,1345.00000000
13.35937500,1345.00000000
13.36328125,1351.00000000
13.36718750,1352.00000000
13.37109375,1345.00000000
13.37500000,1346.00000000
13.37890625,1347.00000000
13.38281250,1357.00000000
13.38671875,1349.00000000
13.39062500,1349.00000000
13.39453125,1350.00000000
13.39843750,1351.00000000
13.40234375,1349.00000000
13.40625000,1347.00000000
13.41015625,1351.00000000
13.41406250,1353.00000000
13.41796875,1353.00000000
13.42187500,1350.00000000
13.42578125,1349.00000000
13.42968750,1345.00000000
13.43359375,1352.00000000
13.43750000,1352.00000000
13.44140625,1353.00000000
13.44531250,1345.00000000
13.44921875,1344.00000000
13.45312500,1346.00000000
13.45703125,1353.00000000
13.46093750,1356.00000000
13.46484375,1355.00000000
13.46875000,1363.00000000
13.47265625,1378.00000000
13.47656250,1383.00000000
13.48046875,1383.00000000
13.48437500,1384.00000000
13.48828125,1386.00000000
13.49218750,1387.00000000
13.49609375,1388.00000000
13.50000000,1387.00000000
13.50390625,1379.00000000
13.50781250,1382.00000000
13.51171875,1383.00000000
13.51562500,1378.00000000
13.51953125,1368.00000000
13.52343750,1362.00000000
13.52734375,1359.00000000
13.53125000,1356.00000000
13.53515625,1351.00000000
13.53906250,1346.00000000
13.54296875,1340.00000000
13.54687500,1345.00000000
13.55078125,1346.00000000
13.55468750,1343.00000000
13.55859375,1340.00000000
13.56250000,1339.00000000
13.56640625,1345.00000000
13.57031250,1347.00000000
13.57421875,1342.00000000
13.57812500,1340.00000000
13.58203125,1346.00000000
13.58593750,1344.00000000
13.58984375,1343.00000000
13.59375000,1341.00000000
13.59765625,1329.00000000
13.60156250,1338.00000000
13.60546875,1334.00000000
13.60937500,1329.00000000
13.61328125,1328.00000000
13.61718750,1330.00000000
13.62109375,1374.00000000
13.62500000,1471.00000000
13.62890625,1516.00000000
13.63281250,1585.00000000
13.63671875,1626.00000000
13.64062500,1631.00000000
13.64453125,1628.00000000
13.64843750,1618.00000000
13.65234375,1603.00000000
13.65625000,1585.00000000
13.66015625,1536.00000000
13.66406250,1504.00000000
13.66796875,1483.00000000
13.67187500,1471.00000000
13.67578125,1441.00000000
13.67968750,1391.00000000
13.68359375,1348.00000000
13.68750000,1262.00000000
13.69140625,1212.00000000
13.69531250,1204.00000000
13.69921875,1207.00000000
13.70312500,1215.00000000
13.70703125,1221.00000000
13.71093750,1233.00000000
13.71484375,1251.00000000
13.71875000,1259.00000000
13.72265625,1266.00000000
13.72656250,1272.00000000
13.73046875,1277.00000000
13.73437500,1291.00000000
13.73828125,1298.00000000
13.74218750,1301.00000000
13.74609375,1308.00000000
13.75000000,1312.00000000
13.75390625,1318.00000000
13.75781250,1321.00000000
13.76171875,1319.00000000
13.76562500,1321.00000000
13.76953125,1330.00000000
13.77343750,1334.00000000
13.77734375,1333.00000000
13.78125000,1335.00000000
13.78515625,1339.00000000
13.78906250,1344.00000000
13.79296875,1346.00000000
13.79687500,1341.00000000
13.80078125,1344.00000000
13.80468750,1345.00000000
13.80859375,1354.00000000
13.81250000,1355.00000000
13.81640625,1354.00000000
13.82031250,1355.00000000
13.82421875,1358.00000000
13.82812500,1368.00000000
13.83203125,1370.00000000
13.83593750,1367.00000000
13.83984375,1377.00000000
13.84375000,1379.00000000
13.84765625,1380.00000000
13.85156250,1374.00000000
13.85546875,1385.00000000
13.85937500,1380.00000000
13.86328125,1390.00000000
13.86718750,1395.00000000
13.87109375,1392.00000000
13.87500000,1393.00000000
13.87890625,1393.00000000
13.88281250,1397.00000000
13.88671875,1398.00000000
13.89062500,1386.00000000
13.89453125,1390.00000000
13.89843750,1392.00000000
13.90234375,1385.00000000
13.90625000,1381.00000000
13.91015625,1377.00000000
13.91406250,1364.00000000
13.91796875,1367.00000000
13.92187500,1349.00000000
13.92578125,1341.00000000
13.92968750,1327.00000000
13.93359375,1325.00000000
13.93750000,1317.00000000
13.94140625,1326.00000000
13.94531250,1322.00000000
13.94921875,1321.00000000
13.95312500,1323.00000000
13.95703125,1329.00000000
13.96093750,1332.00000000
13.96484375,1331.00000000
13.96875000,1333.00000000
13.97265625,1336.00000000
13.97656250,1336.00000000
13.98046875,1339.00000000
13.98437500,1340.00000000
13.98828125,1336.00000000
13.99218750,1343.00000000
13.99609375,1344.00000000
14.00000000,1343.00000000
14.00390625,1343.00000000
14.00781250,1341.00000000
14.01171875,1350.00000000
14.01562500,1351.00000000
14.01953125,1344.00000000
14.02343750,1349.00000000
14.02734375,1347.00000000
14.03125000,1353.00000000
14.03515625,1347.00000000
14.03906250,1348.00000000
14.04296875,1349.00000000
14.04687500,1350.00000000
14.05078125,1358.00000000
14.05468750,1352.00000000
14.05859375,1352.00000000
14.06250000,1353.00000000
14.06640625,1357.00000000
14.07031250,1357.00000000
14.07421875,1355.00000000
14.07812500,1353.00000000
14.08203125,1358.00000000
14.08593750,1359.00000000
14.08984375,1361.00000000
14.09375000,1357.00000000
14.09765625,1355.00000000
14.10156250,1355.00000000
14.10546875,1358.00000000
14.10937500,1357.00000000
14.11328125,1349.00000000
14.11718750,1345.00000000
14.12109375,1354.00000000
14.12500000,1354.00000000
14.12890625,1355.00000000
14.13281250,1353.00000000
14.13671875,1351.00000000
14.14062500,1357.00000000
14.14453125,1359.00000000
14.14843750,1355.00000000
14.15234375,1352.00000000
14.15625000,1352.00000000
14.16015625,1357.00000000
14.16406250,1354.00000000
14.16796875,1356.00000000
14.17187500,1355.00000000
14.17578125,1356.00000000
14.17968750,1361.00000000
14.18359375,1359.00000000
14.18750000,1360.00000000
14.19140625,1354.00000000
14.19531250,1356.00000000
14.19921875,1367.00000000
14.20312500,1366.00000000
14.20703125,1371.00000000
14.21093750,1380.00000000
14.21484375,1389.00000000
14.21875000,1391.00000000
14.22265625,1385.00000000
14.22656250,1387.00000000
14.23046875,1389.00000000
14.23437500,1393.00000000
14.23828125,1388.00000000
14.24218750,1386.00000000
14.24609375,1381.00000000
14.25000000,1380.00000000
14.25390625,1364.00000000
14.25781250,1367.00000000
14.26171875,1356.00000000
14.26562500,1349.00000000
14.26953125,1349.00000000
14.27343750,1350.00000000
14.27734375,1343.00000000
14.28125000,1341.00000000
14.28515625,1339.00000000
14.28906250,1342.00000000
14.29296875,1343.00000000
14.29687500,1342.00000000
14.30078125,1337.00000000
14.30468750,1337.00000000
14.30859375,1346.00000000
14.31250000,1345.00000000
14.31640625,1341.00000000
14.32031250,1338.00000000
14.32421875,1333.00000000
14.32812500,1342.00000000
14.33203125,1339.00000000
14.33593750,1332.00000000
14.33984375,1331.00000000
14.34375000,1334.00000000
14.34765625,1331.00000000
14.35156250,1385.00000000
14.35546875,1433.00000000
14.35937500,1479.00000000
14.36328125,1535.00000000
14.36718750,1564.00000000
14.37109375,1607.00000000
14.37500000,1622.00000000
14.37890625,1626.00000000
14.38281250,1617.00000000
14.38671875,1596.00000000
14.39062500,1578.00000000
14.39453125,1564.00000000
14.39843750,1548.00000000
14.40234375,1541.00000000
14.40625000,1486.00000000
14.41015625,1441.00000000
14.41406250,1387.00000000
14.41796875,1334.00000000
14.42187500,1297.00000000
14.42578125,1233.00000000
14.42968750,1198.00000000
14.43359375,1196.00000000
14.43750000,1200.00000000
14.44140625,1214.00000000
14.44531250,1227.00000000
14.44921875,1236.00000000
14.45312500,1244.00000000
14.45703125,1258.00000000
14.46093750,1265.00000000
14.46484375,1272.00000000
14.46875000,1279.00000000
14.47265625,1283.00000000
14.47656250,1289.00000000
14.48046875,1306.00000000
14.48437500,1305.00000000
14.48828125,1307.00000000
14.49218750,1311.00000000
14.49609375,1319.00000000
14.50000000,1326.00000000
14.50390625,1317.00000000
14.50781250,1329.00000000
14.51171875,1334.00000000
14.51562500,1339.00000000
14.51953125,1340.00000000
14.52343750,1336.00000000
14.52734375,1338.00000000
14.53125000,1339.00000000
14.53515625,1347.00000000
14.53906250,1349.00000000
14.54296875,1351.00000000
14.54687500,1353.00000000
14.55078125,1363.00000000
14.55468750,1366.00000000
14.55859375,1365.00000000
14.56250000,1368.00000000
14.56640625,1374.00000000
14.57031250,1374.00000000
14.57421875,1370.00000000
14.57812500,1373.00000000
14.58203125,1379.00000000
14.58593750,1389.00000000
14.58984375,1393.00000000
14.59375000,1394.00000000
14.59765625,1391.00000000
14.60156250,1390.00000000
14.60546875,1400.00000000
14.60937500,1402.00000000
14.61328125,1399.00000000
14.61718750,1396.00000000
14.62109375,1398.00000000
14.62500000,1398.00000000
14.62890625,1400.00000000
14.63281250,1395.00000000
14.63671875,1389.00000000
14.64062500,1386.00000000
14.64453125,1390.00000000
14.64843750,1376.00000000
14.65234375,1364.00000000
14.65625000,1361.00000000
14.66015625,1360.00000000
14.66406250,1362.00000000
14.66796875,1350.00000000
14.67187500,1344.00000000
14.67578125,1335.00000000
14.67968750,1337.00000000
14.68359375,1335.00000000
14.68750000,1332.00000000
14.69140625,1326.00000000
14.69531250,1330.00000000
14.69921875,1333.00000000
14.70312500,1334.00000000
14.70703125,1330.00000000
14.71093750,1330.00000000
14.71484375,1332.00000000
14.71875000,1340.00000000
14.72265625,1337.00000000
14.72656250,1337.00000000
14.73046875,1336.00000000
14.73437500,1344.00000000
14.73828125,1345.00000000
14.74218750,1341.00000000
14.74609375,1341.00000000
14.75000000,1341.00000000
14.75390625,1348.00000000
14.75781250,1348.00000000
14.76171875,1342.00000000
14.76562500,1342.00000000
14.76953125,1348.00000000
14.77343750,1347.00000000
14.77734375,1346.00000000
14.78125000,1346.00000000
14.78515625,1348.00000000
14.78906250,1346.00000000
14.79296875,1350.00000000
14.79687500,1347.00000000
14.80078125,1345.00000000
14.80468750,1345.00000000
14.80859375,1348.00000000
14.81250000,1352.00000000
14.81640625,1351.00000000
14.82031250,1345.00000000
14.82421875,1351.00000000
14.82812500,1351.00000000
14.83203125,1352.00000000
14.83593750,1348.00000000
14.83984375,1345.00000000
14.84375000,1350.00000000
14.84765625,1349.00000000
14.85156250,1355.00000000
14.85546875,1349.00000000
14.85937500,1347.00000000
14.86328125,1347.00000000
14.86718750,1351.00000000
14.87109375,1357.00000000
14.87500000,1356.00000000
14.87890625,1351.00000000
14.88281250,1357.00000000
14.88671875,1359.00000000
14.89062500,1359.00000000
14.89453125,1353.00000000
14.89843750,1353.00000000
14.90234375,1362.00000000
14.90625000,1363.00000000
14.91015625,1359.00000000
14.91406250,1360.00000000
14.91796875,1369.00000000
14.92187500,1371.00000000
14.92578125,1372.00000000
14.92968750,1368.00000000
14.93359375,1366.00000000
14.93750000,1371.00000000
14.94140625,1384.00000000
14.94531250,1386.00000000
14.94921875,1388.00000000
14.95312500,1391.00000000
14.95703125,1396.00000000
14.96093750,1400.00000000
14.96484375,1398.00000000
14.96875000,1397.00000000
14.97265625,1393.00000000
14.97656250,1397.00000000
14.98046875,1396.00000000
14.98437500,1387.00000000
14.98828125,1384.00000000
14.99218750,1381.00000000
14.99609375,1377.00000000
15.00000000,1372.00000000
15.00390625,1364.00000000
15.00781250,1358.00000000
15.01171875,1353.00000000
15.01562500,1360.00000000
15.01953125,1354.00000000
15.02343750,1353.00000000
15.02734375,1353.00000000
15.03125000,1353.00000000
15.03515625,1355.00000000
15.03906250,1353.00000000
15.04296875,1348.00000000
15.04687500,1343.00000000
15.05078125,1350.00000000
15.05468750,1352.00000000
15.05859375,1344.00000000
15.06250000,1342.00000000
15.06640625,1338.00000000
15.07031250,1342.00000000
15.07421875,1335.00000000
15.07812500,1337.00000000
15.08203125,1361.00000000
15.08593750,1376.00000000
15.08984375,1426.00000000
15.09375000,1470.00000000
15.09765625,1515.00000000
15.10156250,1567.00000000
15.10546875,1590.00000000
15.10937500,1607.00000000
15.11328125,1610.00000000
15.11718750,1603.00000000
15.12109375,1588.00000000
15.12500000,1577.00000000
15.12890625,1566.00000000
15.13281250,1546.00000000
15.13671875,1512.00000000
15.14062500,1480.00000000
15.14453125,1422.00000000
15.14843750,1374.00000000
15.15234375,1322.00000000
15.15625000,1277.00000000
15.16015625,1249.00000000
15.16406250,1205.00000000
15.16796875,1189.00000000
15.17187500,1182.00000000
15.17578125,1193.00000000
15.17968750,1208.00000000
15.18359375,1223.00000000
15.18750000,1228.00000000
15.19140625,1231.00000000
15.19531250,1241.00000000
15.19921875,1253.00000000
15.20312500,1267.00000000
15.20703125,1268.00000000
15.21093750,1276.00000000
15.21484375,1284.00000000
15.21875000,1279.00000000
15.22265625,1292.00000000
15.22656250,1292.00000000
15.23046875,1292.00000000
15.23437500,1297.00000000
15.23828125,1304.00000000
15.24218750,1311.00000000
15.24609375,1304.00000000
15.25000000,1308.00000000
15.25390625,1311.00000000
15.25781250,1318.00000000
15.26171875,1321.00000000
15.26562500,1316.00000000
15.26953125,1320.00000000
15.27343750,1330.00000000
15.27734375,1335.00000000
15.28125000,1336.00000000
15.28515625,1334.00000000
15.28906250,1346.00000000
15.29296875,1350.00000000
15.29687500,1352.00000000
15.30078125,1350.00000000
15.30468750,1348.00000000
15.30859375,1357.00000000
15.31250000,1359.00000000
15.31640625,1367.00000000
15.32031250,1368.00000000
15.32421875,1374.00000000
15.32812500,1381.00000000
15.33203125,1391.00000000
15.33593750,1388.00000000
15.33984375,1391.00000000
15.34375000,1394.00000000
15.34765625,1401.00000000
15.35156250,1396.00000000
15.35546875,1396.00000000
15.35937500,1395.00000000
15.36328125,1392.00000000
15.36718750,1389.00000000
15.37109375,1389.00000000
15.37500000,1390.00000000
15.37890625,1378.00000000
15.38281250,1373.00000000
15.38671875,1377.00000000
15.39062500,1369.00000000
15.39453125,1364.00000000
15.39843750,1355.00000000
15.40234375,1353.00000000
15.40625000,1344.00000000
15.41015625,1339.00000000
15.41406250,1329.00000000
15.41796875,1321.00000000
15.42187500,1328.00000000
15.42578125,1330.00000000
15.42968750,1326.00000000
15.43359375,1328.00000000
15.43750000,1331.00000000
15.44140625,1338.00000000
15.44531250,1342.00000000
15.44921875,1342.00000000
15.45312500,1341.00000000
15.45703125,1344.00000000
15.46093750,1350.00000000
15.46484375,1351.00000000
15.46875000,1353.00000000
15.47265625,1347.00000000
15.47656250,1347.00000000
15.48046875,1353.00000000
15.48437500,1348.00000000
15.48828125,1348.00000000
15.49218750,1348.00000000
15.49609375,1350.00000000
15.50000000,1354.00000000
15.50390625,1348.00000000
15.50781250,1347.00000000
15.51171875,1353.00000000
15.51562500,1356.00000000
15.51953125,1350.00000000
15.52343750,1351.00000000
15.52734375,1348.00000000
15.53125000,1348.00000000
15.53515625,1352.00000000
15.53906250,1358.00000000
15.54296875,1350.00000000
15.54687500,1354.00000000
15.55078125,1353.00000000
15.55468750,1355.00000000
15.55859375,1357.00000000
15.56250000,1355.00000000
15.56640625,1356.00000000
15.57031250,1354.00000000
15.57421875,1353.00000000
15.57812500,1350.00000000
15.58203125,1347.00000000
15.58593750,1347.00000000
15.58984375,1355.00000000
15.59375000,1358.00000000
15.59765625,1355.00000000
15.60156250,1346.00000000
15.60546875,1346.00000000
15.60937500,1354.00000000
15.61328125,1358.00000000
15.61718750,1350.00000000
15.62109375,1347.00000000
15.62500000,1348.00000000
15.62890625,1354.00000000
15.63281250,1351.00000000
15.63671875,1348.00000000
15.64062500,1348.00000000
15.64453125,1355.00000000
15.64843750,1357.00000000
15.65234375,1350.00000000
15.65625000,1352.00000000
15.66015625,1358.00000000
15.66406250,1359.00000000
15.66796875,1359.00000000
15.67187500,1354.00000000
15.67578125,1362.00000000
15.67968750,1368.00000000
15.68359375,1379.00000000
15.68750000,1382.00000000
15.69140625,1380.00000000
15.69531250,1383.00000000
15.69921875,1389.00000000
15.70312500,1391.00000000
15.70703125,1388.00000000
15.71093750,1387.00000000
15.71484375,1381.00000000
15.71875000,1386.00000000
15.72265625,1377.00000000
15.72656250,1371.00000000
15.73046875,1355.00000000
15.73437500,1356.00000000
15.73828125,1356.00000000
15.74218750,1349.00000000
15.74609375,1345.00000000
15.75000000,1345.00000000
15.75390625,1345.00000000
15.75781250,1343.00000000
15.76171875,1344.00000000
15.76562500,1336.00000000
15.76953125,1335.00000000
15.77343750,1337.00000000
15.77734375,1343.00000000
15.78125000,1342.00000000
15.78515625,1331.00000000
15.78906250,1336.00000000
15.79296875,1333.00000000
15.79687500,1335.00000000
15.80078125,1331.00000000
15.80468750,1324.00000000
15.80859375,1322.00000000
15.81250000,1321.00000000
15.81640625,1328.00000000
15.82031250,1322.00000000
15.82421875,1326.00000000
15.82812500,1326.00000000
15.83203125,1334.00000000
15.83593750,1383.00000000
15.83984375,1471.00000000
15.84375000,1525.00000000
15.84765625,1591.00000000
15.85156250,1621.00000000
15.85546875,1629.00000000
15.85937500,1628.00000000
15.86328125,1613.00000000
15.86718750,1601.00000000
15.87109375,1580.00000000
15.87500000,1530.00000000
15.87890625,1494.00000000
15.88281250,1426.00000000
15.88671875,1390.00000000
15.89062500,1315.00000000
15.89453125,1250.00000000
15.89843750,1223.00000000
15.90234375,1217.00000000
15.90625000,1219.00000000
15.91015625,1234.00000000
15.91406250,1244.00000000
15.91796875,1254.00000000
15.92187500,1266.00000000
15.92578125,1273.00000000
15.92968750,1280.00000000
15.93359375,1287.00000000
15.93750000,1293.00000000
15.94140625,1304.00000000
15.94531250,1314.00000000
15.94921875,1312.00000000
15.95312500,1315.00000000
15.95703125,1322.00000000
15.96093750,1336.00000000
15.96484375,1342.00000000
15.96875000,1346.00000000
15.97265625,1345.00000000
15.97656250,1347.00000000
15.98046875,1360.00000000
15.98437500,1358.00000000
15.98828125,1357.00000000
15.99218750,1356.00000000
15.99609375,1364.00000000
16.00000000,1368.00000000
16.00390625,1367.00000000
16.00781250,1363.00000000
16.01171875,1362.00000000
16.01562500,1361.00000000
16.01953125,1368.00000000
16.02343750,1367.00000000
16.02734375,1370.00000000
16.03125000,1371.00000000
16.03515625,1381.00000000
16.03906250,1382.00000000
16.04296875,1378.00000000
16.04687500,1380.00000000
16.05078125,1383.00000000
16.05468750,1395.00000000
16.05859375,1393.00000000
16.06250000,1398.00000000
16.06640625,1399.00000000
16.07031250,1401.00000000
16.07421875,1403.00000000
16.07812500,1405.00000000
16.08203125,1404.00000000
16.08593750,1401.00000000
16.08984375,1405.00000000
16.09375000,1402.00000000
16.09765625,1405.00000000
16.10156250,1397.00000000
16.10546875,1394.00000000
16.10937500,1398.00000000
16.11328125,1391.00000000
16.11718750,1387.00000000
16.12109375,1382.00000000
16.12500000,1375.00000000
16.12890625,1372.00000000
16.13281250,1365.00000000
16.13671875,1348.00000000
16.14062500,1339.00000000
16.14453125,1331.00000000
16.14843750,1333.00000000
16.15234375,1324.00000000
16.15625000,1320.00000000
16.16015625,1319.00000000
16.16406250,1324.00000000
16.16796875,1327.00000000
16.17187500,1324.00000000
16.17578125,1321.00000000
16.17968750,1324.00000000
16.18359375,1334.00000000
16.18750000,1337.00000000
16.19140625,1333.00000000
16.19531250,1334.00000000
16.19921875,1335.00000000
16.20312500,1346.00000000
16.20703125,1343.00000000
16.21093750,1339.00000000
16.21484375,1340.00000000
16.21875000,1340.00000000
16.22265625,1346.00000000
16.22656250,1343.00000000
16.23046875,1344.00000000
16.23437500,1343.00000000
16.23828125,1349.00000000
16.24218750,1351.00000000
16.24609375,1348.00000000
16.25000000,1348.00000000
16.25390625,1353.00000000
16.25781250,1353.00000000
16.26171875,1350.00000000
16.26562500,1351.00000000
16.26953125,1350.00000000
16.27343750,1347.00000000
16.27734375,1352.00000000
16.28125000,1354.00000000
16.28515625,1348.00000000
16.28906250,1348.00000000
16.29296875,1349.00000000
16.29687500,1354.00000000
16.30078125,1348.00000000
16.30468750,1346.00000000
16.30859375,1351.00000000
16.31250000,1352.00000000
16.31640625,1349.00000000
16.32031250,1348.00000000
16.32421875,1347.00000000
16.32812500,1346.00000000
16.33203125,1351.00000000
16.33593750,1344.00000000
16.33984375,1344.00000000
16.34375000,1343.00000000
16.34765625,1341.00000000
16.35156250,1347.00000000
16.35546875,1349.00000000
16.35937500,1342.00000000
16.36328125,1341.00000000
16.36718750,1343.00000000
16.37109375,1348.00000000
16.37500000,1347.00000000
16.37890625,1342.00000000
16.38281250,1349.00000000
16.38671875,1346.00000000
16.39062500,1348.00000000
16.39453125,1347.00000000
16.39843750,1346.00000000
16.40234375,1345.00000000
16.40625000,1344.00000000
16.41015625,1347.00000000
16.41406250,1347.00000000
16.41796875,1346.00000000
16.42187500,1361.00000000
16.42578125,1367.00000000
16.42968750,1373.00000000
16.43359375,1371.00000000
16.43750000,1374.00000000
16.44140625,1375.00000000
16.44531250,1381.00000000
16.44921875,1379.00000000
16.45312500,1372.00000000
16.45703125,1374.00000000
16.46093750,1370.00000000
16.46484375,1372.00000000
16.46875000,1371.00000000
16.47265625,1361.00000000
16.47656250,1357.00000000
16.48046875,1362.00000000
16.48437500,1354.00000000
16.48828125,1345.00000000
16.49218750,1341.00000000
16.49609375,1344.00000000
16.50000000,1345.00000000
16.50390625,1348.00000000
16.50781250,1342.00000000
16.51171875,1341.00000000
16.51562500,1339.00000000
16.51953125,1346.00000000
16.52343750,1346.00000000
16.52734375,1343.00000000
16.53125000,1338.00000000
16.53515625,1340.00000000
16.53906250,1346.00000000
16.54296875,1341.00000000
16.54687500,1337.00000000
16.55078125,1332.00000000
16.55468750,1337.00000000
16.55859375,1336.00000000
16.56250000,1338.00000000
16.56640625,1333.00000000
16.57031250,1338.00000000
16.57421875,1379.00000000
16.57812500,1437.00000000
16.58203125,1479.00000000
16.58593750,1547.00000000
16.58984375,1582.00000000
16.59375000,1619.00000000
16.59765625,1640.00000000
16.60156250,1639.00000000
16.60546875,1631.00000000
16.60937500,1615.00000000
16.61328125,1587.00000000
16.61718750,1563.00000000
16.62109375,1504.00000000
16.62500000,1461.00000000
16.62890625,1408.00000000
16.63281250,1359.00000000
16.63671875,1313.00000000
16.64062500,1254.00000000
16.64453125,1227.00000000
16.64843750,1232.00000000
16.65234375,1240.00000000
16.65625000,1239.00000000
16.66015625,1243.00000000
16.66406250,1254.00000000
16.66796875,1272.00000000
16.67187500,1282.00000000
16.67578125,1289.00000000
16.67968750,1291.00000000
16.68359375,1301.00000000
16.68750000,1308.00000000
16.69140625,1308.00000000
16.69531250,1312.00000000
16.69921875,1312.00000000
16.70312500,1323.00000000
16.70703125,1326.00000000
16.71093750,1322.00000000
16.71484375,1324.00000000
16.71875000,1330.00000000
16.72265625,1335.00000000
16.72656250,1335.00000000
16.73046875,1329.00000000
16.73437500,1325.00000000
16.73828125,1328.00000000
16.74218750,1338.00000000
16.74609375,1336.00000000
16.75000000,1338.00000000
16.75390625,1339.00000000
16.75781250,1343.00000000
16.76171875,1344.00000000
16.76562500,1338.00000000
16.76953125,1337.00000000
16.77343750,1335.00000000
16.77734375,1348.00000000
16.78125000,1350.00000000
16.78515625,1350.00000000
16.78906250,1347.00000000
16.79296875,1357.00000000
16.79687500,1360.00000000
16.80078125,1364.00000000
16.80468750,1364.00000000
16.80859375,1364.00000000
16.81250000,1371.00000000
16.81640625,1373.00000000
16.82031250,1375.00000000
16.82421875,1369.00000000
16.82812500,1374.00000000
16.83203125,1376.00000000
16.83593750,1380.00000000
16.83984375,1379.00000000
16.84375000,1378.00000000
16.84765625,1373.00000000
16.85156250,1379.00000000
16.85546875,1374.00000000
16.85937500,1370.00000000
16.86328125,1364.00000000
16.86718750,1359.00000000
16.87109375,1360.00000000
16.87500000,1352.00000000
16.87890625,1339.00000000
16.88281250,1325.00000000
16.88671875,1320.00000000
16.89062500,1322.00000000
16.89453125,1314.00000000
16.89843750,1317.00000000
16.90234375,1318.00000000
16.90625000,1325.00000000
16.91015625,1327.00000000
16.91406250,1328.00000000
16.91796875,1327.00000000
16.92187500,1325.00000000
16.92578125,1334.00000000
16.92968750,1334.00000000
16.93359375,1336.00000000
16.93750000,1340.00000000
16.94140625,1341.00000000
16.94531250,1342.00000000
16.94921875,1345.00000000
16.95312500,1349.00000000
16.95703125,1347.00000000
16.96093750,1354.00000000
16.96484375,1358.00000000
16.96875000,1362.00000000
16.97265625,1361.00000000
16.97656250,1358.00000000
16.98046875,1357.00000000
16.98437500,1363.00000000
16.98828125,1364.00000000
16.99218750,1362.00000000
16.99609375,1367.00000000
17.00000000,1368.00000000
17.00390625,1367.00000000
17.00781250,1366.00000000
17.01171875,1364.00000000
17.01562500,1362.00000000
17.01953125,1370.00000000
17.02343750,1369.00000000
17.02734375,1368.00000000
17.03125000,1369.00000000
17.03515625,1374.00000000
17.03906250,1372.00000000
17.04296875,1368.00000000
17.04687500,1365.00000000
17.05078125,1365.00000000
17.05468750,1373.00000000
17.05859375,1373.00000000
17.06250000,1375.00000000
17.06640625,1370.00000000
17.07031250,1365.00000000
17.07421875,1368.00000000
17.07812500,1369.00000000
17.08203125,1364.00000000
17.08593750,1361.00000000
17.08984375,1359.00000000
17.09375000,1358.00000000
17.09765625,1364.00000000
17.10156250,1360.00000000
17.10546875,1357.00000000
17.10937500,1360.00000000
17.11328125,1359.00000000
17.11718750,1355.00000000
17.12109375,1350.00000000
17.12500000,1350.00000000
17.12890625,1348.00000000
17.13281250,1363.00000000
17.13671875,1354.00000000
17.14062500,1353.00000000
17.14453125,1350.00000000
17.14843750,1356.00000000
17.15234375,1355.00000000
17.15625000,1354.00000000
17.16015625,1351.00000000
17.16406250,1361.00000000
17.16796875,1368.00000000
17.17187500,1374.00000000
17.17578125,1371.00000000
17.17968750,1373.00000000
17.18359375,1376.00000000
17.18750000,1377.00000000
17.19140625,1376.00000000
17.19531250,1376.00000000
17.19921875,1375.00000000
17.20312500,1383.00000000
17.20703125,1383.00000000
17.21093750,1376.00000000
17.21484375,1371.00000000
17.21875000,1367.00000000
17.22265625,1368.00000000
17.22656250,1361.00000000
17.23046875,1351.00000000
17.23437500,1340.00000000
17.23828125,1329.00000000
17.24218750,1333.00000000
17.24609375,1324.00000000
17.25000000,1321.00000000
17.25390625,1323.00000000
17.25781250,1319.00000000
17.26171875,1326.00000000
17.26562500,1323.00000000
17.26953125,1322.00000000
17.27343750,1324.00000000
17.27734375,1328.00000000
17.28125000,1329.00000000
17.28515625,1327.00000000
17.28906250,1326.00000000
17.29296875,1323.00000000
17.29687500,1323.00000000
17.30078125,1329.00000000
17.30468750,1321.00000000
17.30859375,1318.00000000
17.31250000,1319.00000000
17.31640625,1327.00000000
17.32031250,1349.00000000
17.32421875,1399.00000000
17.32812500,1430.00000000
17.33203125,1495.00000000
17.33593750,1530.00000000
17.33984375,1576.00000000
17.34375000,1615.00000000
17.34765625,1622.00000000
17.35156250,1620.00000000
17.35546875,1610.00000000
17.35937500,1594.00000000
17.36328125,1579.00000000
17.36718750,1566.00000000
17.37109375,1559.00000000
17.37500000,1524.00000000
17.37890625,1467.00000000
17.38281250,1426.00000000
17.38671875,1365.00000000
17.39062500,1337.00000000
17.39453125,1263.00000000
17.39843750,1211.00000000
17.40234375,1188.00000000
17.40625000,1188.00000000
17.41015625,1202.00000000
17.41406250,1211.00000000
17.41796875,1220.00000000
17.42187500,1236.00000000
17.42578125,1250.00000000
17.42968750,1260.00000000
17.43359375,1267.00000000
17.43750000,1270.00000000
17.44140625,1282.00000000
17.44531250,1291.00000000
17.44921875,1291.00000000
17.45312500,1294.00000000
17.45703125,1297.00000000
17.46093750,1299.00000000
17.46484375,1312.00000000
17.46875000,1321.00000000
17.47265625,1325.00000000
17.47656250,1322.00000000
17.48046875,1326.00000000
17.48437500,1336.00000000
17.48828125,1335.00000000
17.49218750,1334.00000000
17.49609375,1339.00000000
17.50000000,1342.00000000
17.50390625,1347.00000000
17.50781250,1349.00000000
17.51171875,1350.00000000
17.51562500,1351.00000000
17.51953125,1362.00000000
17.52343750,1361.00000000
17.52734375,1361.00000000
17.53125000,1362.00000000
17.53515625,1361.00000000
17.53906250,1372.00000000
17.54296875,1375.00000000
17.54687500,1373.00000000
17.55078125,1377.00000000
17.55468750,1379.00000000
17.55859375,1379.00000000
17.56250000,1383.00000000
17.56640625,1386.00000000
17.57031250,1390.00000000
17.57421875,1398.00000000
17.57812500,1396.00000000
17.58203125,1403.00000000
17.58593750,1401.00000000
17.58984375,1405.00000000
17.59375000,1404.00000000
17.59765625,1405.00000000
17.60156250,1399.00000000
17.60546875,1399.00000000
17.60937500,1394.00000000
17.61328125,1397.00000000
17.61718750,1393.00000000
17.62109375,1380.00000000
17.62500000,1375.00000000
17.62890625,1362.00000000
17.63281250,1360.00000000
17.63671875,1349.00000000
17.64062500,1343.00000000
17.64453125,1342.00000000
17.64843750,1347.00000000
17.65234375,1349.00000000
17.65625000,1350.00000000
17.66015625,1339.00000000
17.66406250,1337.00000000
17.66796875,1343.00000000
17.67187500,1338.00000000
17.67578125,1345.00000000
17.67968750,1338.00000000
17.68359375,1344.00000000
17.68750000,1347.00000000
17.69140625,1347.00000000
17.69531250,1342.00000000
17.69921875,1339.00000000
17.70312500,1340.00000000
17.70703125,1347.00000000
17.71093750,1344.00000000
17.71484375,1342.00000000
17.71875000,1342.00000000
17.72265625,1345.00000000
17.72656250,1348.00000000
17.73046875,1346.00000000
17.73437500,1346.00000000
17.73828125,1342.00000000
17.74218750,1350.00000000
17.74609375,1345.00000000
17.75000000,1347.00000000
17.75390625,1348.00000000
17.75781250,1345.00000000
17.76171875,1352.00000000
17.76562500,1353.00000000
17.76953125,1347.00000000
17.77343750,1345.00000000
17.77734375,1351.00000000
17.78125000,1352.00000000
17.78515625,1356.00000000
17.78906250,1346.00000000
17.79296875,1348.00000000
17.79687500,1352.00000000
17.80078125,1354.00000000
17.80468750,1351.00000000
17.80859375,1347.00000000
17.81250000,1346.00000000
17.81640625,1353.00000000
17.82031250,1357.00000000
17.82421875,1350.00000000
17.82812500,1348.00000000
17.83203125,1353.00000000
17.83593750,1352.00000000
17.83984375,1354.00000000
17.84375000,1355.00000000
17.84765625,1346.00000000
17.85156250,1345.00000000
17.85546875,1353.00000000
17.85937500,1355.00000000
17.86328125,1344.00000000
17.86718750,1347.00000000
17.87109375,1347.00000000
17.87500000,1348.00000000
17.87890625,1350.00000000
17.88281250,1348.00000000
17.88671875,1347.00000000
17.89062500,1356.00000000
17.89453125,1358.00000000
17.89843750,1354.00000000
17.90234375,1356.00000000
17.90625000,1351.00000000
17.91015625,1352.00000000
17.91406250,1362.00000000
17.91796875,1353.00000000
17.92187500,1355.00000000
17.92578125,1365.00000000
17.92968750,1372.00000000
17.93359375,1379.00000000
17.93750000,1379.00000000
17.94140625,1381.00000000
17.94531250,1388.00000000
17.94921875,1394.00000000
17.95312500,1389.00000000
17.95703125,1391.00000000
17.96093750,1387.00000000
17.96484375,1392.00000000
17.96875000,1389.00000000
17.97265625,1383.00000000
17.97656250,1376.00000000
17.98046875,1376.00000000
17.98437500,1371.00000000
17.98828125,1372.00000000
17.99218750,1364.00000000
17.99609375,1358.00000000
18.00000000,1353.00000000
18.00390625,1358.00000000
18.00781250,1353.00000000
18.01171875,1345.00000000
18.01562500,1344.00000000
18.01953125,1342.00000000
18.02343750,1341.00000000
18.02734375,1339.00000000
18.03125000,1339.00000000
18.03515625,1341.00000000
18.03906250,1340.00000000
18.04296875,1340.00000000
18.04687500,1334.00000000
18.05078125,1331.00000000
18.05468750,1325.00000000
18.05859375,1332.00000000
18.06250000,1331.00000000
18.06640625,1325.00000000
18.07031250,1324.00000000
18.07421875,1322.00000000
18.07812500,1329.00000000
18.08203125,1330.00000000
18.08593750,1362.00000000
18.08984375,1423.00000000
18.09375000,1462.00000000
18.09765625,1526.00000000
18.10156250,1560.00000000
18.10546875,1602.00000000
18.10937500,1622.00000000
18.11328125,1631.00000000
18.11718750,1623.00000000
18.12109375,1606.00000000
18.12500000,1583.00000000
18.12890625,1572.00000000
18.13281250,1513.00000000
18.13671875,1462.00000000
18.14062500,1408.00000000
18.14453125,1357.00000000
18.14843750,1319.00000000
18.15234375,1258.00000000
18.15625000,1222.00000000
18.16015625,1212.00000000
18.16406250,1218.00000000
18.16796875,1230.00000000
18.17187500,1240.00000000
18.17578125,1249.00000000
18.17968750,1252.00000000
18.18359375,1255.00000000
18.18750000,1271.00000000
18.19140625,1280.00000000
18.19531250,1284.00000000
18.19921875,1287.00000000
18.20312500,1301.00000000
18.20703125,1308.00000000
18.21093750,1313.00000000
18.21484375,1312.00000000
18.21875000,1318.00000000
18.22265625,1325.00000000
18.22656250,1328.00000000
18.23046875,1332.00000000
18.23437500,1328.00000000
18.23828125,1331.00000000
18.24218750,1338.00000000
18.24609375,1341.00000000
18.25000000,1341.00000000
18.25390625,1339.00000000
18.25781250,1340.00000000
18.26171875,1344.00000000
18.26562500,1344.00000000
18.26953125,1345.00000000
18.27343750,1346.00000000
18.27734375,1344.00000000
18.28125000,1350.00000000
18.28515625,1351.00000000
18.28906250,1351.00000000
18.29296875,1354.00000000
18.29687500,1356.00000000
18.30078125,1365.00000000
18.30468750,1363.00000000
18.30859375,1364.00000000
18.31250000,1369.00000000
18.31640625,1375.00000000
18.32031250,1384.00000000
18.32421875,1383.00000000
18.32812500,1385.00000000
18.33203125,1388.00000000
18.33593750,1392.00000000
18.33984375,1398.00000000
18.34375000,1394.00000000
18.34765625,1393.00000000
18.35156250,1392.00000000
18.35546875,1398.00000000
18.35937500,1390.00000000
18.36328125,1390.00000000
18.36718750,1386.00000000
18.37109375,1386.00000000
18.37500000,1388.00000000
18.37890625,1381.00000000
18.38281250,1374.00000000
18.38671875,1364.00000000
18.39062500,1363.00000000
18.39453125,1351.00000000
18.39843750,1345.00000000
18.40234375,1330.00000000
18.40625000,1324.00000000
