0.00000000,-29642.00000000
0.01562500,-29739.00000000
0.03125000,-29926.00000000
0.04687500,-30015.00000000
0.06250000,-30101.00000000
0.07812500,-30184.00000000
0.09375000,-30265.00000000
0.10937500,-30343.00000000
0.12500000,-30492.00000000
0.14062500,-30563.00000000
0.15625000,-30632.00000000
0.17187500,-30699.00000000
0.18750000,-30764.00000000
0.20312500,-30826.00000000
0.21875000,-30946.00000000
0.23437500,-31003.00000000
0.25000000,-31058.00000000
0.26562500,-31111.00000000
0.28125000,-31163.00000000
0.29687500,-31213.00000000
0.31250000,-31309.00000000
0.32812500,-31355.00000000
0.34375000,-31399.00000000
0.35937500,-31442.00000000
0.37500000,-31483.00000000
0.39062500,-31562.00000000
0.40625000,-31600.00000000
0.42187500,-31636.00000000
0.43750000,-31672.00000000
0.45312500,-31706.00000000
0.46875000,-31739.00000000
0.48437500,-31803.00000000
0.50000000,-31833.00000000
0.51562500,-31862.00000000
0.53125000,-31890.00000000
0.54687500,-31918.00000000
0.56250000,-31944.00000000
0.57812500,-31995.00000000
0.59375000,-32019.00000000
0.60937500,-32043.00000000
0.62500000,-32065.00000000
0.64062500,-32087.00000000
0.65625000,-32109.00000000
0.67187500,-32149.00000000
0.68750000,-32169.00000000
0.70312500,-32187.00000000
0.71875000,-32206.00000000
0.73437500,-32223.00000000
0.75000000,-32240.00000000
0.76562500,-32273.00000000
0.78125000,-32288.00000000
0.79687500,-32303.00000000
0.81250000,-32318.00000000
0.82812500,-32332.00000000
0.84375000,-32359.00000000
0.85937500,-32371.00000000
0.87500000,-32384.00000000
0.89062500,-32396.00000000
0.90625000,-32408.00000000
0.92187500,-32419.00000000
0.93750000,-32440.00000000
0.95312500,-32451.00000000
0.96875000,-32461.00000000
0.98437500,-32470.00000000
1.00000000,-32479.00000000
1.01562500,-32489.00000000
1.03125000,-32506.00000000
1.04687500,-32514.00000000
1.06250000,-32522.00000000
1.07812500,-32530.00000000
1.09375000,-32537.00000000
1.10937500,-32544.00000000
1.12500000,-32558.00000000
1.14062500,-32565.00000000
1.15625000,-32571.00000000
1.17187500,-32577.00000000
1.18750000,-32583.00000000
1.20312500,-32589.00000000
1.21875000,-32600.00000000
1.23437500,-32605.00000000
1.25000000,-32610.00000000
1.26562500,-32615.00000000
1.28125000,-32620.00000000
1.29687500,-32625.00000000
1.31250000,-32634.00000000
1.32812500,-32638.00000000
1.34375000,-32642.00000000
1.35937500,-32646.00000000
1.37500000,-32650.00000000
1.39062500,-32657.00000000
1.40625000,-32661.00000000
1.42187500,-32664.00000000
1.43750000,-32667.00000000
1.45312500,-32670.00000000
1.46875000,-32673.00000000
1.48437500,-32679.00000000
1.50000000,-32682.00000000
1.51562500,-32685.00000000
1.53125000,-32687.00000000
1.54687500,-32690.00000000
1.56250000,-32692.00000000
1.57812500,-32697.00000000
1.59375000,-32699.00000000
1.60937500,-32701.00000000
1.62500000,-32704.00000000
1.64062500,-32706.00000000
1.65625000,-32708.00000000
1.67187500,-32711.00000000
1.68750000,-32713.00000000
1.70312500,-32715.00000000
1.71875000,-32717.00000000
1.73437500,-32718.00000000
1.75000000,-32721.00000000
1.76562500,-32723.00000000
1.78125000,-32724.00000000
1.79687500,-32726.00000000
1.81250000,-32727.00000000
1.82812500,-32728.00000000
1.84375000,-32731.00000000
1.85937500,-32732.00000000
1.87500000,-32733.00000000
1.89062500,-32734.00000000
1.90625000,-32735.00000000
1.92187500,-32736.00000000
1.93750000,-32738.00000000
1.95312500,-32739.00000000
1.96875000,-32740.00000000
1.98437500,-32741.00000000
2.00000000,-32742.00000000
2.01562500,-32743.00000000
2.03125000,-32744.00000000
2.04687500,-32745.00000000
2.06250000,-32746.00000000
2.07812500,-32746.00000000
2.09375000,-32747.00000000
2.10937500,-32748.00000000
2.12500000,-32749.00000000
2.14062500,-32750.00000000
2.15625000,-32750.00000000
2.17187500,-32751.00000000
2.18750000,-32751.00000000
2.20312500,-32752.00000000
2.21875000,-32753.00000000
2.23437500,-32753.00000000
2.25000000,-32754.00000000
2.26562500,-32754.00000000
2.28125000,-32755.00000000
2.29687500,-32755.00000000
2.31250000,-32756.00000000
2.32812500,-32756.00000000
2.34375000,-32757.00000000
2.35937500,-32757.00000000
2.37500000,-32758.00000000
2.39062500,-32758.00000000
2.40625000,-32759.00000000
2.42187500,-32759.00000000
2.43750000,-32759.00000000
2.45312500,-32759.00000000
2.46875000,-32760.00000000
2.48437500,-32760.00000000
2.50000000,-32761.00000000
2.51562500,-32761.00000000
2.53125000,-32761.00000000
2.54687500,-32761.00000000
2.56250000,-32762.00000000
2.57812500,-32762.00000000
2.59375000,-32762.00000000
2.60937500,-32762.00000000
2.62500000,-32763.00000000
2.64062500,-32763.00000000
2.65625000,-32763.00000000
2.67187500,-32763.00000000
2.68750000,-32763.00000000
2.70312500,-32764.00000000
2.71875000,-32764.00000000
2.73437500,-32764.00000000
2.75000000,-32764.00000000
2.76562500,-32764.00000000
2.78125000,-32764.00000000
2.79687500,-32765.00000000
2.81250000,-32765.00000000
2.82812500,-32765.00000000
2.84375000,-32765.00000000
2.85937500,-32765.00000000
2.87500000,-32765.00000000
2.89062500,-32765.00000000
2.90625000,-32765.00000000
2.92187500,-32766.00000000
2.93750000,-32766.00000000
2.95312500,30760.00000000
2.96875000,26803.00000000
2.98437500,22969.00000000
3.00000000,21265.00000000
3.01562500,21625.00000000
3.03125000,28278.00000000
3.04687500,32438.00000000
3.06250000,-31078.00000000
3.07812500,-31131.00000000
3.09375000,-31182.00000000
3.10937500,-31231.00000000
3.12500000,-31326.00000000
3.14062500,-31371.00000000
3.15625000,-31415.00000000
3.17187500,-31457.00000000
3.18750000,-31498.00000000
3.20312500,-31538.00000000
3.21875000,-31613.00000000
3.23437500,-31650.00000000
3.25000000,-31685.00000000
3.26562500,-31718.00000000
3.28125000,-31751.00000000
3.29687500,-31783.00000000
3.31250000,-31844.00000000
3.32812500,-31873.00000000
3.34375000,-31901.00000000
3.35937500,-31928.00000000
3.37500000,-31954.00000000
3.39062500,-32004.00000000
3.40625000,-32028.00000000
3.42187500,-32051.00000000
3.43750000,-32074.00000000
3.45312500,-32095.00000000
3.46875000,-32116.00000000
3.48437500,-32156.00000000
3.50000000,-32176.00000000
3.51562500,-32194.00000000
3.53125000,-32212.00000000
3.54687500,-32229.00000000
3.56250000,-32246.00000000
3.57812500,-32515.00000000
3.59375000,32539.00000000
3.60937500,32072.00000000
3.62500000,31857.00000000
3.64062500,31885.00000000
3.65625000,32150.00000000
3.67187500,-32674.00000000
3.68750000,-32615.00000000
3.70312500,-32707.00000000
3.71875000,32667.00000000
3.73437500,32437.00000000
3.75000000,31894.00000000
3.76562500,31450.00000000
3.78125000,30978.00000000
3.79687500,30582.00000000
3.81250000,30363.00000000
3.82812500,30176.00000000
3.84375000,30339.00000000
3.85937500,30786.00000000
3.87500000,31121.00000000
3.89062500,31190.00000000
3.90625000,31010.00000000
3.92187500,30667.00000000
3.93750000,30086.00000000
3.95312500,28379.00000000
3.96875000,25125.00000000
3.98437500,22088.00000000
4.00000000,20992.00000000
4.01562500,21717.00000000
4.03125000,28101.00000000
4.04687500,31790.00000000
4.06250000,-32231.00000000
4.07812500,-32690.00000000
4.09375000,32310.00000000
4.10937500,31825.00000000
4.12500000,31229.00000000
4.14062500,31050.00000000
4.15625000,30899.00000000
4.17187500,30778.00000000
4.18750000,30725.00000000
4.20312500,30499.00000000
4.21875000,30237.00000000
4.23437500,30757.00000000
4.25000000,31359.00000000
4.26562500,31796.00000000
4.28125000,32047.00000000
4.29687500,31542.00000000
4.31250000,31085.00000000
4.32812500,30950.00000000
4.34375000,31093.00000000
4.35937500,31354.00000000
4.37500000,31666.00000000
4.39062500,31579.00000000
4.40625000,31291.00000000
4.42187500,31004.00000000
4.43750000,30717.00000000
4.45312500,30591.00000000
4.46875000,30756.00000000
4.48437500,31479.00000000
4.50000000,31752.00000000
4.51562500,31946.00000000
4.53125000,32012.00000000
4.54687500,31571.00000000
4.56250000,30668.00000000
4.57812500,29176.00000000
4.59375000,29012.00000000
4.60937500,29281.00000000
4.62500000,29950.00000000
4.64062500,30683.00000000
4.65625000,31041.00000000
4.67187500,31016.00000000
4.68750000,30938.00000000
4.70312500,30844.00000000
4.71875000,30811.00000000
4.73437500,30812.00000000
4.75000000,30832.00000000
4.76562500,30747.00000000
4.78125000,30581.00000000
4.79687500,30450.00000000
4.81250000,30338.00000000
4.82812500,30267.00000000
4.84375000,30236.00000000
4.85937500,30267.00000000
4.87500000,30362.00000000
4.89062500,30581.00000000
4.90625000,30849.00000000
4.92187500,31293.00000000
4.93750000,32236.00000000
4.95312500,30178.00000000
4.96875000,26281.00000000
4.98437500,22778.00000000
5.00000000,21685.00000000
5.01562500,22771.00000000
5.03125000,28747.00000000
5.04687500,31504.00000000
5.06250000,32445.00000000
5.07812500,32099.00000000
5.09375000,32658.00000000
5.10937500,-31475.00000000
5.12500000,-29415.00000000
5.14062500,-29622.00000000
5.15625000,-29847.00000000
5.17187500,-30056.00000000
5.18750000,-30346.00000000
5.20312500,-30676.00000000
5.21875000,-31213.00000000
5.23437500,-31358.00000000
5.25000000,-31402.00000000
5.26562500,-31397.00000000
5.28125000,-31403.00000000
5.29687500,-31534.00000000
5.31250000,-31571.00000000
5.32812500,-31572.00000000
5.34375000,-31602.00000000
5.35937500,-31699.00000000
5.37500000,-32020.00000000
5.39062500,32735.00000000
5.40625000,32757.00000000
5.42187500,-32562.00000000
5.43750000,-32297.00000000
5.45312500,-31914.00000000
5.46875000,-31542.00000000
5.48437500,-31596.00000000
5.50000000,-31687.00000000
5.51562500,-31715.00000000
5.53125000,-31844.00000000
5.54687500,-32003.00000000
5.56250000,-32161.00000000
5.57812500,-32716.00000000
5.59375000,32451.00000000
5.60937500,32104.00000000
5.62500000,31875.00000000
5.64062500,31809.00000000
5.65625000,31919.00000000
5.67187500,32034.00000000
5.68750000,32031.00000000
5.70312500,32004.00000000
5.71875000,31901.00000000
5.73437500,31784.00000000
5.75000000,31675.00000000
5.76562500,31473.00000000
5.78125000,31154.00000000
5.79687500,30896.00000000
5.81250000,30841.00000000
5.82812500,30963.00000000
5.84375000,31600.00000000
5.85937500,31918.00000000
5.87500000,32103.00000000
5.89062500,32169.00000000
5.90625000,32373.00000000
5.92187500,32685.00000000
5.93750000,-32364.00000000
5.95312500,31701.00000000
5.96875000,28637.00000000
5.98437500,25455.00000000
6.00000000,23758.00000000
6.01562500,23869.00000000
6.03125000,29522.00000000
6.04687500,-32333.00000000
6.06250000,-30075.00000000
6.07812500,-29465.00000000
6.09375000,-29113.00000000
6.10937500,-29091.00000000
6.12500000,-29541.00000000
6.14062500,-29959.00000000
6.15625000,-30324.00000000
6.17187500,-30550.00000000
6.18750000,-30605.00000000
6.20312500,-30553.00000000
6.21875000,-30573.00000000
6.23437500,-30828.00000000
6.25000000,-31185.00000000
6.26562500,-31545.00000000
6.28125000,-31861.00000000
6.29687500,-32106.00000000
6.31250000,-32093.00000000
6.32812500,-32011.00000000
6.34375000,-31878.00000000
6.35937500,-31570.00000000
6.37500000,-31147.00000000
6.39062500,-31308.00000000
6.40625000,-32016.00000000
6.42187500,32707.00000000
6.43750000,32055.00000000
6.45312500,31886.00000000
6.46875000,32129.00000000
6.48437500,32663.00000000
6.50000000,32637.00000000
6.51562500,32435.00000000
6.53125000,32169.00000000
6.54687500,32278.00000000
6.56250000,32736.00000000
6.57812500,-32252.00000000
6.59375000,-32263.00000000
6.60937500,-32472.00000000
6.62500000,32606.00000000
6.64062500,32145.00000000
6.65625000,31844.00000000
6.67187500,32176.00000000
6.68750000,-32246.00000000
6.70312500,-31144.00000000
6.71875000,-30623.00000000
6.73437500,-30673.00000000
6.75000000,-32556.00000000
6.76562500,31810.00000000
6.78125000,31286.00000000
6.79687500,31346.00000000
6.81250000,31314.00000000
6.82812500,31192.00000000
6.84375000,30918.00000000
6.85937500,31016.00000000
6.87500000,31291.00000000
6.89062500,31500.00000000
6.90625000,31517.00000000
6.92187500,31509.00000000
6.93750000,31683.00000000
6.95312500,29726.00000000
6.96875000,26118.00000000
6.98437500,22865.00000000
7.00000000,21762.00000000
7.01562500,22574.00000000
7.03125000,27505.00000000
7.04687500,30133.00000000
7.06250000,31369.00000000
7.07812500,31373.00000000
7.09375000,32165.00000000
7.10937500,-30014.00000000
7.12500000,-29175.00000000
7.14062500,-29180.00000000
7.15625000,-29081.00000000
7.17187500,-29016.00000000
7.18750000,-29268.00000000
7.20312500,-29766.00000000
7.21875000,-30877.00000000
7.23437500,-31260.00000000
7.25000000,-31365.00000000
7.26562500,-31296.00000000
7.28125000,-31158.00000000
7.29687500,-30936.00000000
7.31250000,-30979.00000000
7.32812500,-31128.00000000
7.34375000,-31204.00000000
7.35937500,-31206.00000000
7.37500000,-31140.00000000
7.39062500,-30842.00000000
7.40625000,-30761.00000000
7.42187500,-30751.00000000
7.43750000,-30792.00000000
7.45312500,-30914.00000000
7.46875000,-31101.00000000
7.48437500,-31790.00000000
7.50000000,31858.00000000
7.51562500,28716.00000000
7.53125000,25902.00000000
7.54687500,24848.00000000
7.56250000,25408.00000000
7.57812500,30627.00000000
7.59375000,-31911.00000000
7.60937500,-30669.00000000
7.62500000,-31122.00000000
7.64062500,-31638.00000000
7.65625000,-32029.00000000
7.67187500,-32030.00000000
7.68750000,-31677.00000000
7.70312500,-31357.00000000
7.71875000,-31271.00000000
7.73437500,-31424.00000000
7.75000000,-31973.00000000
7.76562500,-32091.00000000
7.78125000,-32049.00000000
7.79687500,-32017.00000000
7.81250000,-32034.00000000
7.82812500,-32351.00000000
7.84375000,32062.00000000
7.85937500,31874.00000000
7.87500000,32067.00000000
7.89062500,32557.00000000
7.90625000,-32335.00000000
7.92187500,-31862.00000000
7.93750000,-31759.00000000
7.95312500,32223.00000000
7.96875000,29205.00000000
7.98437500,26514.00000000
8.00000000,25627.00000000
8.01562500,26292.00000000
8.03125000,31784.00000000
8.04687500,-30468.00000000
8.06250000,-28962.00000000
8.07812500,-29127.00000000
8.09375000,-29198.00000000
8.10937500,-29372.00000000
8.12500000,-29571.00000000
8.14062500,-29844.00000000
8.15625000,-30157.00000000
8.17187500,-30497.00000000
8.18750000,-30777.00000000
8.20312500,-30999.00000000
8.21875000,-31202.00000000
8.23437500,-31331.00000000
8.25000000,-31542.00000000
8.26562500,-31761.00000000
8.28125000,-31982.00000000
8.29687500,-32193.00000000
8.31250000,-32174.00000000
8.32812500,-32131.00000000
8.34375000,-32061.00000000
8.35937500,-32054.00000000
8.37500000,-32159.00000000
8.39062500,-32199.00000000
8.40625000,-32076.00000000
8.42187500,-31902.00000000
8.43750000,-31800.00000000
8.45312500,-31903.00000000
8.46875000,-32241.00000000
8.48437500,-32728.00000000
8.50000000,-32472.00000000
8.51562500,-32071.00000000
8.53125000,-31783.00000000
8.54687500,-31800.00000000
8.56250000,-32100.00000000
8.57812500,32534.00000000
8.59375000,32311.00000000
8.60937500,32296.00000000
8.62500000,32333.00000000
8.64062500,32414.00000000
8.65625000,32470.00000000
8.67187500,32456.00000000
8.68750000,32383.00000000
8.70312500,32269.00000000
8.71875000,32176.00000000
8.73437500,32190.00000000
8.75000000,32487.00000000
8.76562500,32640.00000000
8.78125000,32752.00000000
8.79687500,-32739.00000000
8.81250000,-32759.00000000
8.82812500,32710.00000000
8.84375000,32433.00000000
8.85937500,32402.00000000
8.87500000,32569.00000000
8.89062500,-32417.00000000
8.90625000,-31623.00000000
8.92187500,-30860.00000000
8.93750000,-30790.00000000
8.95312500,31827.00000000
8.96875000,26913.00000000
8.98437500,22578.00000000
9.00000000,21053.00000000
9.01562500,22105.00000000
9.03125000,29492.00000000
9.04687500,-32230.00000000
9.06250000,-30733.00000000
9.07812500,-31138.00000000
9.09375000,-31227.00000000
9.10937500,-30075.00000000
9.12500000,-29533.00000000
9.14062500,-29339.00000000
9.15625000,-29294.00000000
9.17187500,-29465.00000000
9.18750000,-29877.00000000
9.20312500,-30361.00000000
9.21875000,-31036.00000000
9.23437500,-31346.00000000
9.25000000,-31636.00000000
9.26562500,-31907.00000000
9.28125000,-32068.00000000
9.29687500,-32116.00000000
9.31250000,-32253.00000000
9.32812500,-32768.00000000
9.34375000,32132.00000000
9.35937500,31684.00000000
9.37500000,31418.00000000
9.39062500,31753.00000000
9.40625000,32217.00000000
9.42187500,32704.00000000
9.43750000,-32326.00000000
9.45312500,-31737.00000000
9.46875000,-31337.00000000
9.48437500,-31572.00000000
9.50000000,-31593.00000000
9.51562500,-31070.00000000
9.53125000,-30575.00000000
9.54687500,-30606.00000000
9.56250000,-31286.00000000
9.57812500,31498.00000000
9.59375000,30156.00000000
9.60937500,29700.00000000
9.62500000,30027.00000000
9.64062500,30347.00000000
9.65625000,30598.00000000
9.67187500,30732.00000000
9.68750000,30710.00000000
9.70312500,30724.00000000
9.71875000,30954.00000000
9.73437500,31397.00000000
9.75000000,32229.00000000
9.76562500,32351.00000000
9.78125000,32269.00000000
9.79687500,32028.00000000
9.81250000,31764.00000000
9.82812500,31802.00000000
9.84375000,32452.00000000
9.85937500,32635.00000000
9.87500000,32589.00000000
9.89062500,32288.00000000
9.90625000,31880.00000000
9.92187500,31617.00000000
9.93750000,31729.00000000
9.95312500,30542.00000000
9.96875000,27968.00000000
9.98437500,25636.00000000
10.00000000,24990.00000000
10.01562500,26099.00000000
10.03125000,32245.00000000
10.04687500,-30156.00000000
10.06250000,-29072.00000000
10.07812500,-29847.00000000
10.09375000,-30556.00000000
10.10937500,-31110.00000000
10.12500000,-31026.00000000
10.14062500,-30806.00000000
10.15625000,-30606.00000000
10.17187500,-30551.00000000
10.18750000,-30616.00000000
10.20312500,-30912.00000000
10.21875000,-31062.00000000
10.23437500,-31115.00000000
10.25000000,-31145.00000000
10.26562500,-31168.00000000
10.28125000,-31157.00000000
10.29687500,-31198.00000000
10.31250000,-31195.00000000
10.32812500,-31160.00000000
10.34375000,-31179.00000000
10.35937500,-31304.00000000
10.37500000,-31504.00000000
10.39062500,-32060.00000000
10.40625000,32472.00000000
10.42187500,30763.00000000
10.43750000,29023.00000000
10.45312500,28112.00000000
10.46875000,28032.00000000
10.48437500,30353.00000000
10.50000000,31770.00000000
10.51562500,32173.00000000
10.53125000,31704.00000000
10.54687500,31491.00000000
10.56250000,31723.00000000
10.57812500,32679.00000000
10.59375000,-32516.00000000
10.60937500,-32429.00000000
10.62500000,-32517.00000000
10.64062500,-32594.00000000
10.65625000,-32316.00000000
10.67187500,-31490.00000000
10.68750000,-31374.00000000
10.70312500,-31469.00000000
10.71875000,-31702.00000000
10.73437500,-31368.00000000
10.75000000,-29686.00000000
10.76562500,-29751.00000000
10.78125000,-30545.00000000
10.79687500,-31768.00000000
10.81250000,32090.00000000
10.82812500,30692.00000000
10.84375000,31086.00000000
10.85937500,31589.00000000
10.87500000,31691.00000000
10.89062500,31690.00000000
10.90625000,31642.00000000
10.92187500,31545.00000000
10.93750000,32099.00000000
10.95312500,30915.00000000
10.96875000,27817.00000000
10.98437500,24682.00000000
11.00000000,23692.00000000
11.01562500,24513.00000000
11.03125000,30419.00000000
11.04687500,-31672.00000000
11.06250000,-30070.00000000
11.07812500,-30233.00000000
11.09375000,-30063.00000000
11.10937500,-29372.00000000
11.12500000,-29322.00000000
11.14062500,-29391.00000000
11.15625000,-29341.00000000
11.17187500,-29290.00000000
11.18750000,-29372.00000000
11.20312500,-30072.00000000
11.21875000,-30471.00000000
11.23437500,-30671.00000000
11.25000000,-30680.00000000
11.26562500,-30597.00000000
11.28125000,-30492.00000000
11.29687500,-30449.00000000
11.31250000,-30593.00000000
11.32812500,-30897.00000000
11.34375000,-31039.00000000
11.35937500,-30877.00000000
11.37500000,-30685.00000000
11.39062500,-30806.00000000
11.40625000,-31204.00000000
11.42187500,-32219.00000000
11.43750000,32055.00000000
11.45312500,30954.00000000
11.46875000,30312.00000000
11.48437500,30103.00000000
11.50000000,30495.00000000
11.51562500,30917.00000000
11.53125000,31100.00000000
11.54687500,31026.00000000
11.56250000,30911.00000000
11.57812500,31102.00000000
11.59375000,31378.00000000
11.60937500,31576.00000000
11.62500000,31629.00000000
11.64062500,31603.00000000
11.65625000,31593.00000000
11.67187500,31587.00000000
11.68750000,31528.00000000
11.70312500,31472.00000000
11.71875000,31303.00000000
11.73437500,31096.00000000
11.75000000,31485.00000000
11.76562500,32070.00000000
11.78125000,-32764.00000000
11.79687500,-32034.00000000
11.81250000,-31596.00000000
11.82812500,-31467.00000000
11.84375000,-31860.00000000
11.85937500,-32154.00000000
11.87500000,-32309.00000000
11.89062500,-32307.00000000
11.90625000,-32383.00000000
11.92187500,-32523.00000000
11.93750000,32704.00000000
11.95312500,31092.00000000
11.96875000,28166.00000000
11.98437500,25687.00000000
12.00000000,25037.00000000
12.01562500,25923.00000000
12.03125000,31344.00000000
12.04687500,-31205.00000000
12.06250000,-29845.00000000
12.07812500,-29954.00000000
12.09375000,-29877.00000000
12.10937500,-29702.00000000
12.12500000,-29791.00000000
12.14062500,-29928.00000000
12.15625000,-30056.00000000
12.17187500,-30095.00000000
12.18750000,-30076.00000000
12.20312500,-30370.00000000
12.21875000,-30796.00000000
12.23437500,-31320.00000000
12.25000000,-31685.00000000
12.26562500,-31719.00000000
12.28125000,-31880.00000000
12.29687500,32749.00000000
12.31250000,32461.00000000
12.32812500,32105.00000000
12.34375000,31816.00000000
12.35937500,32110.00000000
12.37500000,-32706.00000000
12.39062500,-31922.00000000
12.40625000,32401.00000000
12.42187500,29610.00000000
12.43750000,26933.00000000
12.45312500,25999.00000000
12.46875000,26922.00000000
12.48437500,-32492.00000000
12.50000000,-29149.00000000
12.51562500,-27704.00000000
12.53125000,-28018.00000000
12.54687500,-28255.00000000
12.56250000,-28451.00000000
12.57812500,-28681.00000000
12.59375000,-28774.00000000
12.60937500,-28973.00000000
12.62500000,-29134.00000000
12.64062500,-29202.00000000
12.65625000,-29419.00000000
12.67187500,-30243.00000000
12.68750000,-30813.00000000
12.70312500,-31574.00000000
12.71875000,-32203.00000000
12.73437500,-32519.00000000
12.75000000,-32418.00000000
12.76562500,-32386.00000000
12.78125000,-32267.00000000
12.79687500,-31995.00000000
12.81250000,-31622.00000000
12.82812500,-31320.00000000
12.84375000,-31224.00000000
12.85937500,-31670.00000000
12.87500000,-32270.00000000
12.89062500,32595.00000000
12.90625000,31971.00000000
12.92187500,31476.00000000
12.93750000,31483.00000000
12.95312500,29857.00000000
12.96875000,26662.00000000
12.98437500,23735.00000000
13.00000000,22825.00000000
13.01562500,23456.00000000
13.03125000,29616.00000000
13.04687500,-32019.00000000
13.06250000,-29974.00000000
13.07812500,-29674.00000000
13.09375000,-29176.00000000
13.10937500,-28424.00000000
13.12500000,-28626.00000000
13.14062500,-29048.00000000
13.15625000,-29429.00000000
13.17187500,-29728.00000000
13.18750000,-29989.00000000
13.20312500,-29921.00000000
13.21875000,-29595.00000000
13.23437500,-29364.00000000
13.25000000,-29368.00000000
13.26562500,-29587.00000000
13.28125000,-29941.00000000
13.29687500,-31383.00000000
13.31250000,-32374.00000000
13.32812500,32244.00000000
13.34375000,31527.00000000
13.35937500,31326.00000000
13.37500000,31600.00000000
13.39062500,-32742.00000000
13.40625000,-32255.00000000
13.42187500,-32327.00000000
13.43750000,32574.00000000
13.45312500,31718.00000000
13.46875000,30956.00000000
13.48437500,29612.00000000
13.50000000,29209.00000000
13.51562500,28958.00000000
13.53125000,28812.00000000
13.54687500,28990.00000000
13.56250000,29312.00000000
13.57812500,29974.00000000
13.59375000,30397.00000000
13.60937500,30623.00000000
13.62500000,30676.00000000
13.64062500,30966.00000000
13.65625000,31356.00000000
13.67187500,32216.00000000
13.68750000,32490.00000000
13.70312500,32326.00000000
13.71875000,31756.00000000
13.73437500,31061.00000000
13.75000000,30527.00000000
13.76562500,31205.00000000
13.78125000,32222.00000000
13.79687500,-32507.00000000
13.81250000,-32153.00000000
13.82812500,-32181.00000000
13.84375000,32559.00000000
13.85937500,32180.00000000
13.87500000,32040.00000000
13.89062500,32196.00000000
13.90625000,32301.00000000
13.92187500,32224.00000000
13.93750000,32005.00000000
13.95312500,30551.00000000
13.96875000,27825.00000000
13.98437500,25634.00000000
14.00000000,25206.00000000
14.01562500,28239.00000000
14.03125000,31752.00000000
14.04687500,-30435.00000000
14.06250000,-28778.00000000
14.07812500,-28824.00000000
14.09375000,-28951.00000000
14.10937500,-29790.00000000
14.12500000,-30530.00000000
14.14062500,-31002.00000000
14.15625000,-31022.00000000
14.17187500,-30831.00000000
14.18750000,-30579.00000000
14.20312500,-30657.00000000
14.21875000,-31412.00000000
14.23437500,-32459.00000000
14.25000000,32373.00000000
14.26562500,32307.00000000
14.28125000,-32766.00000000
14.29687500,-31121.00000000
14.31250000,-30600.00000000
14.32812500,-30525.00000000
14.34375000,-30796.00000000
14.35937500,-31084.00000000
14.37500000,-31310.00000000
14.39062500,-31341.00000000
14.40625000,-30816.00000000
14.42187500,-29851.00000000
14.43750000,-29349.00000000
14.45312500,-29814.00000000
14.46875000,-31142.00000000
14.48437500,30500.00000000
14.50000000,28632.00000000
14.51562500,27645.00000000
14.53125000,27601.00000000
14.54687500,27640.00000000
14.56250000,27874.00000000
14.57812500,28846.00000000
14.59375000,29231.00000000
14.60937500,29461.00000000
14.62500000,29658.00000000
14.64062500,29833.00000000
14.65625000,30480.00000000
14.67187500,30950.00000000
14.68750000,31476.00000000
14.70312500,31756.00000000
14.71875000,31606.00000000
14.73437500,30001.00000000
14.75000000,24685.00000000
14.76562500,23888.00000000
14.78125000,24829.00000000
14.79687500,27093.00000000
14.81250000,30441.00000000
14.82812500,-32058.00000000
14.84375000,-30299.00000000
14.85937500,-30164.00000000
14.87500000,-30136.00000000
14.89062500,-30213.00000000
14.90625000,-30319.00000000
14.92187500,-30366.00000000
14.93750000,-30503.00000000
14.95312500,-32692.00000000
14.96875000,28908.00000000
14.98437500,25398.00000000
15.00000000,24432.00000000
15.01562500,28439.00000000
15.03125000,32486.00000000
15.04687500,-29568.00000000
15.06250000,-28281.00000000
15.07812500,-28719.00000000
15.09375000,-28636.00000000
15.10937500,-27673.00000000
15.12500000,-27805.00000000
15.14062500,-28510.00000000
15.15625000,-29402.00000000
15.17187500,-30157.00000000
15.18750000,-30678.00000000
15.20312500,-30615.00000000
15.21875000,-30025.00000000
15.23437500,-29547.00000000
15.25000000,-29417.00000000
15.26562500,-29432.00000000
15.28125000,-29584.00000000
15.29687500,-30212.00000000
15.31250000,-30298.00000000
15.32812500,-30243.00000000
15.34375000,-30326.00000000
15.35937500,-30518.00000000
15.37500000,-30690.00000000
15.39062500,-30909.00000000
15.40625000,-30990.00000000
15.42187500,-31379.00000000
15.43750000,-32074.00000000
15.45312500,32469.00000000
15.46875000,31525.00000000
15.48437500,30897.00000000
15.50000000,31310.00000000
15.51562500,31856.00000000
15.53125000,32159.00000000
15.54687500,32129.00000000
15.56250000,31782.00000000
15.57812500,31062.00000000
15.59375000,31057.00000000
15.60937500,31200.00000000
15.62500000,31460.00000000
15.64062500,31880.00000000
15.65625000,-32748.00000000
15.67187500,-32495.00000000
15.68750000,-32354.00000000
15.70312500,-32348.00000000
15.71875000,-32364.00000000
15.73437500,-32348.00000000
15.75000000,-31966.00000000
15.76562500,-31878.00000000
15.78125000,-31999.00000000
15.79687500,-32330.00000000
15.81250000,-32749.00000000
15.82812500,32371.00000000
15.84375000,31927.00000000
15.85937500,31806.00000000
15.87500000,31844.00000000
15.89062500,32104.00000000
15.90625000,32483.00000000
15.92187500,-32693.00000000
15.93750000,-32689.00000000
15.95312500,31019.00000000
15.96875000,27858.00000000
15.98437500,25124.00000000
16.00000000,24239.00000000
16.01562500,27737.00000000
16.03125000,31387.00000000
16.04687500,-31042.00000000
16.06250000,-29670.00000000
16.07812500,-29949.00000000
16.09375000,-30384.00000000
16.10937500,-31056.00000000
16.12500000,-31073.00000000
16.14062500,-31156.00000000
16.15625000,-31319.00000000
16.17187500,-31573.00000000
16.18750000,-31874.00000000
16.20312500,-32358.00000000
16.21875000,-32406.00000000
16.23437500,-32371.00000000
16.25000000,-32271.00000000
16.26562500,-32126.00000000
16.28125000,-31875.00000000
16.29687500,-31135.00000000
16.31250000,-30825.00000000
16.32812500,-30668.00000000
16.34375000,-30697.00000000
16.35937500,-30870.00000000
16.37500000,-31134.00000000
16.39062500,-31407.00000000
16.40625000,-30912.00000000
16.42187500,-29861.00000000
16.43750000,-29011.00000000
16.45312500,-28940.00000000
16.46875000,-29651.00000000
16.48437500,-32608.00000000
16.50000000,31493.00000000
16.51562500,30872.00000000
16.53125000,31013.00000000
16.54687500,31254.00000000
16.56250000,31573.00000000
16.57812500,31921.00000000
16.59375000,31995.00000000
16.60937500,32104.00000000
16.62500000,32421.00000000
16.64062500,-32609.00000000
16.65625000,-31705.00000000
16.67187500,-31667.00000000
16.68750000,-31836.00000000
16.70312500,-31993.00000000
16.71875000,-32031.00000000
16.73437500,-31955.00000000
16.75000000,-32209.00000000
16.76562500,-32669.00000000
16.78125000,32433.00000000
16.79687500,32211.00000000
16.81250000,32159.00000000
16.82812500,32218.00000000
16.84375000,31439.00000000
16.85937500,30512.00000000
16.87500000,29538.00000000
16.89062500,28770.00000000
16.90625000,28523.00000000
16.92187500,28838.00000000
16.93750000,30399.00000000
16.95312500,28882.00000000
16.96875000,25353.00000000
16.98437500,21932.00000000
17.00000000,20810.00000000
17.01562500,24598.00000000
17.03125000,29002.00000000
17.04687500,-32539.00000000
17.06250000,-30723.00000000
17.07812500,-30892.00000000
17.09375000,-30972.00000000
17.10937500,-31208.00000000
17.12500000,-31389.00000000
17.14062500,-31350.00000000
17.15625000,-30856.00000000
17.17187500,-30171.00000000
17.18750000,-29808.00000000
17.20312500,-30649.00000000
17.21875000,-31284.00000000
17.23437500,-31411.00000000
17.25000000,-30953.00000000
17.26562500,-30021.00000000
17.28125000,-29088.00000000
17.29687500,-28766.00000000
17.31250000,-30455.00000000
17.32812500,32099.00000000
17.34375000,29289.00000000
17.35937500,27970.00000000
17.37500000,28096.00000000
17.39062500,31961.00000000
17.40625000,-31662.00000000
17.42187500,-31029.00000000
17.43750000,-31345.00000000
17.45312500,-31464.00000000
17.46875000,-31375.00000000
17.48437500,-30987.00000000
17.50000000,-31147.00000000
17.51562500,-31405.00000000
17.53125000,-31509.00000000
17.54687500,-31499.00000000
17.56250000,-31295.00000000
17.57812500,-30697.00000000
17.59375000,-30585.00000000
17.60937500,-30651.00000000
17.62500000,-30974.00000000
17.64062500,-31577.00000000
17.65625000,-32750.00000000
17.67187500,32397.00000000
17.68750000,32368.00000000
17.70312500,32735.00000000
17.71875000,-32232.00000000
17.73437500,-31641.00000000
17.75000000,-30790.00000000
17.76562500,-30901.00000000
17.78125000,-31286.00000000
17.79687500,-31681.00000000
17.81250000,-31981.00000000
17.82812500,-32064.00000000
17.84375000,-31648.00000000
17.85937500,-31409.00000000
17.87500000,-31229.00000000
17.89062500,-31199.00000000
17.90625000,-31336.00000000
17.92187500,-31557.00000000
17.93750000,-31853.00000000
17.95312500,32118.00000000
17.96875000,29156.00000000
17.98437500,26517.00000000
18.00000000,25677.00000000
18.01562500,28758.00000000
18.03125000,32356.00000000
18.04687500,-29916.00000000
18.06250000,-28584.00000000
18.07812500,-29072.00000000
18.09375000,-29418.00000000
18.10937500,-29356.00000000
18.12500000,-29052.00000000
18.14062500,-28643.00000000
18.15625000,-28373.00000000
18.17187500,-28353.00000000
18.18750000,-28553.00000000
18.20312500,-29666.00000000
18.21875000,-30716.00000000
18.23437500,-31922.00000000
18.25000000,32661.00000000
18.26562500,32426.00000000
18.28125000,32739.00000000
18.29687500,-31571.00000000
18.31250000,-31941.00000000
18.32812500,32089.00000000
18.34375000,30377.00000000
18.35937500,29719.00000000
18.37500000,30075.00000000
18.39062500,32674.00000000
18.40625000,-31513.00000000
18.42187500,-31021.00000000
18.43750000,-31301.00000000
18.45312500,-31532.00000000
18.46875000,-31496.00000000
18.48437500,-30962.00000000
18.50000000,-30823.00000000
18.51562500,-30813.00000000
18.53125000,-30957.00000000
18.54687500,-31271.00000000
18.56250000,-31631.00000000
18.57812500,-32743.00000000
18.59375000,32312.00000000
18.60937500,32199.00000000
18.62500000,32129.00000000
18.64062500,32024.00000000
18.65625000,32341.00000000
18.67187500,32448.00000000
18.68750000,32472.00000000
18.70312500,32745.00000000
18.71875000,-32450.00000000
18.73437500,-32334.00000000
18.75000000,-32396.00000000
18.76562500,-32363.00000000
18.78125000,-32316.00000000
18.79687500,-32251.00000000
18.81250000,-32255.00000000
18.82812500,-32370.00000000
18.84375000,32635.00000000
18.85937500,32368.00000000
18.87500000,32260.00000000
18.89062500,32401.00000000
18.90625000,32717.00000000
18.92187500,-32582.00000000
18.93750000,-32737.00000000
18.95312500,30427.00000000
18.96875000,26337.00000000
18.98437500,22771.00000000
19.00000000,21790.00000000
19.01562500,25992.00000000
19.03125000,30376.00000000
19.04687500,-31383.00000000
19.06250000,-29973.00000000
19.07812500,-30327.00000000
19.09375000,-30189.00000000
19.10937500,-29549.00000000
19.12500000,-29497.00000000
19.14062500,-29640.00000000
19.15625000,-29759.00000000
19.17187500,-29737.00000000
19.18750000,-29519.00000000
19.20312500,-29405.00000000
19.21875000,-29644.00000000
19.23437500,-30220.00000000
19.25000000,-31016.00000000
19.26562500,-31561.00000000
19.28125000,-31638.00000000
19.29687500,-31494.00000000
19.31250000,32679.00000000
19.32812500,29730.00000000
19.34375000,26794.00000000
19.35937500,25606.00000000
19.37500000,26396.00000000
19.39062500,28835.00000000
19.40625000,-29380.00000000
19.42187500,-27798.00000000
19.43750000,-27970.00000000
19.45312500,-28090.00000000
19.46875000,-28218.00000000
19.48437500,-28692.00000000
19.50000000,-29120.00000000
19.51562500,-29616.00000000
19.53125000,-30349.00000000
19.54687500,-31205.00000000
19.56250000,-32151.00000000
19.57812500,32365.00000000
19.59375000,32534.00000000
19.60937500,-32362.00000000
19.62500000,-31524.00000000
19.64062500,-30838.00000000
19.65625000,-30606.00000000
19.67187500,-31013.00000000
19.68750000,-31428.00000000
19.70312500,-31643.00000000
19.71875000,-31525.00000000
19.73437500,-31157.00000000
19.75000000,-30720.00000000
19.76562500,-31047.00000000
19.78125000,-31665.00000000
19.79687500,-32356.00000000
19.81250000,32666.00000000
19.82812500,32382.00000000
19.84375000,32398.00000000
19.85937500,32439.00000000
19.87500000,32439.00000000
19.89062500,32428.00000000
19.90625000,32372.00000000
19.92187500,32271.00000000
19.93750000,31977.00000000
19.95312500,30301.00000000
19.96875000,27236.00000000
19.98437500,24909.00000000
20.00000000,24790.00000000
20.01562500,28653.00000000
20.03125000,31823.00000000
20.04687500,-31364.00000000
20.06250000,-31265.00000000
20.07812500,-32702.00000000
20.09375000,32212.00000000
20.10937500,-32548.00000000
20.12500000,-32170.00000000
20.14062500,-31975.00000000
20.15625000,-31998.00000000
20.17187500,-32183.00000000
20.18750000,-32376.00000000
20.20312500,-32349.00000000
20.21875000,-32589.00000000
20.23437500,32477.00000000
20.25000000,32022.00000000
20.26562500,31803.00000000
20.28125000,31975.00000000
20.29687500,-32337.00000000
20.31250000,-31776.00000000
20.32812500,-31736.00000000
20.34375000,-32249.00000000
20.35937500,32538.00000000
20.37500000,31893.00000000
20.39062500,31022.00000000
20.40625000,30866.00000000
20.42187500,30886.00000000
20.43750000,30838.00000000
20.45312500,30808.00000000
20.46875000,30697.00000000
20.48437500,30355.00000000
20.50000000,30638.00000000
20.51562500,31243.00000000
20.53125000,31954.00000000
20.54687500,32496.00000000
20.56250000,32054.00000000
20.57812500,31435.00000000
20.59375000,31195.00000000
20.60937500,31410.00000000
20.62500000,31905.00000000
20.64062500,32406.00000000
20.65625000,-32762.00000000
20.67187500,-32711.00000000
20.68750000,-32681.00000000
20.70312500,-32535.00000000
20.71875000,-32329.00000000
20.73437500,-32225.00000000
20.75000000,-32354.00000000
20.76562500,-32447.00000000
20.78125000,-32626.00000000
20.79687500,32703.00000000
20.81250000,32461.00000000
20.82812500,32216.00000000
20.84375000,31859.00000000
20.85937500,31867.00000000
20.87500000,31962.00000000
20.89062500,32174.00000000
20.90625000,32450.00000000
20.92187500,32709.00000000
20.93750000,-32392.00000000
20.95312500,31317.00000000
20.96875000,27667.00000000
20.98437500,24277.00000000
21.00000000,23196.00000000
21.01562500,26745.00000000
21.03125000,30988.00000000
21.04687500,-30786.00000000
21.06250000,-29327.00000000
21.07812500,-29717.00000000
21.09375000,-29738.00000000
21.10937500,-29091.00000000
21.12500000,-28871.00000000
21.14062500,-28975.00000000
21.15625000,-29368.00000000
21.17187500,-29893.00000000
21.18750000,-30325.00000000
21.20312500,-30474.00000000
21.21875000,-30274.00000000
21.23437500,-30258.00000000
21.25000000,-30498.00000000
21.26562500,-30914.00000000
21.28125000,-31345.00000000
21.29687500,-31881.00000000
21.31250000,-31366.00000000
21.32812500,-30247.00000000
21.34375000,-29509.00000000
21.35937500,-29662.00000000
21.37500000,-30650.00000000
21.39062500,31378.00000000
21.40625000,29711.00000000
21.42187500,28903.00000000
21.43750000,28972.00000000
21.45312500,29201.00000000
21.46875000,29577.00000000
21.48437500,30526.00000000
21.50000000,31032.00000000
21.51562500,31479.00000000
21.53125000,31645.00000000
21.54687500,31452.00000000
21.56250000,30588.00000000
21.57812500,30231.00000000
21.59375000,30197.00000000
21.60937500,30627.00000000
21.62500000,31324.00000000
21.64062500,31918.00000000
21.65625000,32230.00000000
21.67187500,32078.00000000
21.68750000,31869.00000000
21.70312500,31691.00000000
21.71875000,31649.00000000
21.73437500,31743.00000000
21.75000000,32064.00000000
21.76562500,32302.00000000
21.78125000,32518.00000000
21.79687500,32716.00000000
21.81250000,-32673.00000000
21.82812500,-31897.00000000
21.84375000,-29651.00000000
21.85937500,-29838.00000000
21.87500000,-30946.00000000
21.89062500,-32553.00000000
21.90625000,30937.00000000
21.92187500,29355.00000000
21.93750000,29356.00000000
21.95312500,28519.00000000
21.96875000,26373.00000000
21.98437500,24487.00000000
22.00000000,24018.00000000
22.01562500,26646.00000000
22.03125000,29505.00000000
22.04687500,32071.00000000
22.06250000,-32257.00000000
22.07812500,-32252.00000000
22.09375000,-32134.00000000
22.10937500,-32032.00000000
22.12500000,-32149.00000000
22.14062500,-32208.00000000
22.15625000,-32099.00000000
22.17187500,-31717.00000000
22.18750000,-31251.00000000
22.20312500,-30273.00000000
22.21875000,-30996.00000000
22.23437500,32598.00000000
22.25000000,30543.00000000
22.26562500,29354.00000000
22.28125000,29158.00000000
22.29687500,32230.00000000
22.31250000,-31134.00000000
22.32812500,-30262.00000000
22.34375000,-30753.00000000
22.35937500,-31598.00000000
22.37500000,-32444.00000000
22.39062500,32134.00000000
22.40625000,32265.00000000
22.42187500,32720.00000000
22.43750000,-32453.00000000
22.45312500,-32320.00000000
22.46875000,-32331.00000000
22.48437500,-32699.00000000
22.50000000,32669.00000000
22.51562500,-32735.00000000
22.53125000,-32359.00000000
22.54687500,-31804.00000000
22.56250000,-30712.00000000
22.57812500,-30425.00000000
22.59375000,-30347.00000000
22.60937500,-30487.00000000
22.62500000,-30807.00000000
22.64062500,-31224.00000000
22.65625000,-31882.00000000
22.67187500,-31993.00000000
22.68750000,-31907.00000000
22.70312500,-31709.00000000
22.71875000,-31527.00000000
22.73437500,-31513.00000000
22.75000000,-32083.00000000
22.76562500,-32570.00000000
22.78125000,32610.00000000
22.79687500,32523.00000000
22.81250000,-32734.00000000
22.82812500,-32156.00000000
22.84375000,-31031.00000000
22.85937500,-30946.00000000
22.87500000,-31251.00000000
22.89062500,-31751.00000000
22.90625000,-32216.00000000
22.92187500,-32448.00000000
22.93750000,-32193.00000000
22.95312500,31617.00000000
22.96875000,28459.00000000
22.98437500,25857.00000000
23.00000000,25377.00000000
23.01562500,28769.00000000
23.03125000,32582.00000000
23.04687500,-29855.00000000
23.06250000,-29007.00000000
23.07812500,-29787.00000000
23.09375000,-30046.00000000
23.10937500,-30241.00000000
23.12500000,-30278.00000000
23.14062500,-30430.00000000
23.15625000,-30681.00000000
23.17187500,-30937.00000000
23.18750000,-31183.00000000
23.20312500,-31199.00000000
23.21875000,-30917.00000000
23.23437500,-30653.00000000
23.25000000,-30481.00000000
23.26562500,-30393.00000000
23.28125000,-30465.00000000
23.29687500,-30544.00000000
23.31250000,-29999.00000000
23.32812500,-28988.00000000
23.34375000,-28158.00000000
23.35937500,-28063.00000000
23.37500000,-30160.00000000
23.39062500,-31996.00000000
23.40625000,29875.00000000
23.42187500,24989.00000000
23.43750000,21093.00000000
23.45312500,19642.00000000
23.46875000,20490.00000000
23.48437500,28540.00000000
23.50000000,-32464.00000000
23.51562500,-30542.00000000
23.53125000,-30750.00000000
23.54687500,-30818.00000000
23.56250000,-31005.00000000
23.57812500,-30998.00000000
23.59375000,-30908.00000000
23.60937500,-30832.00000000
23.62500000,-30695.00000000
23.64062500,-30285.00000000
23.65625000,-29704.00000000
23.67187500,-29885.00000000
23.68750000,-30283.00000000
23.70312500,-30763.00000000
23.71875000,-31264.00000000
23.73437500,-31667.00000000
23.75000000,-31650.00000000
23.76562500,-31340.00000000
23.78125000,-31049.00000000
23.79687500,-30883.00000000
23.81250000,-30952.00000000
23.82812500,-32749.00000000
23.84375000,26361.00000000
23.85937500,24974.00000000
23.87500000,25377.00000000
23.89062500,27502.00000000
23.90625000,31123.00000000
23.92187500,-31014.00000000
23.93750000,-29690.00000000
23.95312500,-31722.00000000
23.96875000,30304.00000000
23.98437500,27108.00000000
24.00000000,25788.00000000
24.01562500,29642.00000000
24.03125000,-31227.00000000
24.04687500,-26947.00000000
24.06250000,-24862.00000000
24.07812500,-25271.00000000
24.09375000,-26502.00000000
24.10937500,-29271.00000000
24.12500000,-29953.00000000
24.14062500,-30065.00000000
24.15625000,-29695.00000000
24.17187500,-29303.00000000
24.18750000,-29058.00000000
24.20312500,-28859.00000000
24.21875000,-30667.00000000
24.23437500,31328.00000000
24.25000000,27637.00000000
24.26562500,25483.00000000
24.28125000,24890.00000000
24.29687500,29057.00000000
24.31250000,32091.00000000
24.32812500,-32072.00000000
24.34375000,-32318.00000000
24.35937500,-32747.00000000
24.37500000,32154.00000000
24.39062500,32188.00000000
24.40625000,32522.00000000
24.42187500,-32457.00000000
24.43750000,-31913.00000000
24.45312500,-31619.00000000
24.46875000,-31610.00000000
24.48437500,-32320.00000000
24.50000000,-32675.00000000
24.51562500,32548.00000000
24.53125000,32253.00000000
24.54687500,32086.00000000
24.56250000,32355.00000000
24.57812500,32544.00000000
24.59375000,-32600.00000000
24.60937500,-32174.00000000
24.62500000,-31990.00000000
24.64062500,-32039.00000000
24.65625000,-31976.00000000
24.67187500,-31902.00000000
24.68750000,-31752.00000000
24.70312500,-31507.00000000
24.71875000,-31320.00000000
24.73437500,-31260.00000000
24.75000000,-31590.00000000
24.76562500,-31865.00000000
24.78125000,-32057.00000000
24.79687500,-32151.00000000
24.81250000,-32063.00000000
24.82812500,-31775.00000000
24.84375000,-31335.00000000
24.85937500,-31453.00000000
24.87500000,-31828.00000000
24.89062500,-32453.00000000
24.90625000,32481.00000000
24.92187500,32104.00000000
24.93750000,32193.00000000
24.95312500,30529.00000000
24.96875000,27044.00000000
24.98437500,23680.00000000
25.00000000,22572.00000000
25.01562500,25087.00000000
25.03125000,27288.00000000
25.04687500,29370.00000000
25.06250000,30441.00000000
25.07812500,30589.00000000
25.09375000,31900.00000000
25.10937500,-28613.00000000
25.12500000,-27498.00000000
25.14062500,-27744.00000000
25.15625000,-28134.00000000
25.17187500,-28594.00000000
25.18750000,-29054.00000000
25.20312500,-29362.00000000
25.21875000,-29543.00000000
25.23437500,-30138.00000000
25.25000000,-30851.00000000
25.26562500,-31238.00000000
25.28125000,-31370.00000000
25.29687500,-30805.00000000
25.31250000,-30253.00000000
25.32812500,-30038.00000000
25.34375000,-30118.00000000
25.35937500,-29919.00000000
25.37500000,-29090.00000000
25.39062500,-28436.00000000
25.40625000,-27692.00000000
25.42187500,-27392.00000000
25.43750000,-27808.00000000
25.45312500,-28311.00000000
25.46875000,-28643.00000000
25.48437500,-29440.00000000
25.50000000,-29806.00000000
25.51562500,-30375.00000000
25.53125000,-31780.00000000
25.54687500,32107.00000000
25.56250000,29987.00000000
25.57812500,29671.00000000
25.59375000,29774.00000000
25.60937500,30226.00000000
25.62500000,30963.00000000
25.64062500,31807.00000000
25.65625000,-32515.00000000
25.67187500,-32281.00000000
25.68750000,-32367.00000000
25.70312500,-32652.00000000
25.71875000,32628.00000000
25.73437500,32435.00000000
25.75000000,32564.00000000
25.76562500,-32618.00000000
25.78125000,-32212.00000000
25.79687500,-31907.00000000
25.81250000,-31870.00000000
25.82812500,31923.00000000
25.84375000,25465.00000000
25.85937500,24118.00000000
25.87500000,24583.00000000
25.89062500,26728.00000000
25.90625000,30318.00000000
25.92187500,-31867.00000000
25.93750000,-30538.00000000
25.95312500,-32443.00000000
25.96875000,29709.00000000
25.98437500,26549.00000000
26.00000000,25195.00000000
26.01562500,27822.00000000
26.03125000,31673.00000000
26.04687500,-30054.00000000
26.06250000,-27850.00000000
26.07812500,-27465.00000000
26.09375000,-27467.00000000
26.10937500,-28656.00000000
26.12500000,-29416.00000000
26.14062500,-29902.00000000
26.15625000,-29970.00000000
26.17187500,-29823.00000000
26.18750000,-29649.00000000
26.20312500,-29892.00000000
26.21875000,-29844.00000000
26.23437500,-29377.00000000
26.25000000,-29175.00000000
26.26562500,-29645.00000000
26.28125000,-30740.00000000
26.29687500,31802.00000000
26.31250000,30468.00000000
26.32812500,29945.00000000
26.34375000,30146.00000000
26.35937500,30179.00000000
26.37500000,30073.00000000
26.39062500,30109.00000000
26.40625000,30297.00000000
26.42187500,30674.00000000
26.43750000,31122.00000000
26.45312500,31444.00000000
26.46875000,31250.00000000
26.48437500,30924.00000000
26.50000000,30773.00000000
26.51562500,31038.00000000
26.53125000,31610.00000000
26.54687500,32549.00000000
26.56250000,-31287.00000000
26.57812500,-31264.00000000
26.59375000,-31524.00000000
26.60937500,-31917.00000000
26.62500000,-32508.00000000
26.64062500,32461.00000000
26.65625000,31957.00000000
26.67187500,31769.00000000
26.68750000,31714.00000000
26.70312500,31837.00000000
26.71875000,32027.00000000
26.73437500,32178.00000000
26.75000000,32128.00000000
26.76562500,31890.00000000
26.78125000,31800.00000000
26.79687500,31906.00000000
26.81250000,32187.00000000
26.82812500,32591.00000000
26.84375000,-32254.00000000
26.85937500,-32224.00000000
26.87500000,-32378.00000000
26.89062500,-32586.00000000
26.90625000,-32756.00000000
26.92187500,32621.00000000
26.93750000,32412.00000000
26.95312500,30571.00000000
26.96875000,27100.00000000
26.98437500,23942.00000000
27.00000000,23346.00000000
27.01562500,27844.00000000
27.03125000,31910.00000000
27.04687500,-30212.00000000
27.06250000,-29184.00000000
27.07812500,-30115.00000000
27.09375000,-30467.00000000
27.10937500,-29608.00000000
27.12500000,-29493.00000000
27.14062500,-29943.00000000
27.15625000,-30671.00000000
27.17187500,-31305.00000000
27.18750000,-31485.00000000
27.20312500,-30397.00000000
27.21875000,-29421.00000000
27.23437500,-29097.00000000
27.25000000,-29681.00000000
27.26562500,-30859.00000000
27.28125000,-32188.00000000
27.29687500,30685.00000000
27.31250000,30037.00000000
27.32812500,29929.00000000
27.34375000,30007.00000000
27.35937500,30385.00000000
27.37500000,31072.00000000
27.39062500,31881.00000000
27.40625000,-32242.00000000
27.42187500,-31238.00000000
27.43750000,-31215.00000000
27.45312500,-31760.00000000
27.46875000,31077.00000000
27.48437500,29553.00000000
27.50000000,29037.00000000
27.51562500,29346.00000000
27.53125000,29535.00000000
27.54687500,29650.00000000
27.56250000,30003.00000000
27.57812500,30230.00000000
27.59375000,30413.00000000
27.60937500,30663.00000000
27.62500000,31007.00000000
27.64062500,31315.00000000
27.65625000,31443.00000000
27.67187500,31385.00000000
27.68750000,31269.00000000
27.70312500,31223.00000000
27.71875000,31414.00000000
27.73437500,31715.00000000
27.75000000,32137.00000000
27.76562500,32194.00000000
27.78125000,32095.00000000
27.79687500,31919.00000000
27.81250000,31747.00000000
27.82812500,31585.00000000
27.84375000,31789.00000000
27.85937500,32316.00000000
27.87500000,-32617.00000000
27.89062500,-32136.00000000
27.90625000,-31816.00000000
27.92187500,-31788.00000000
27.93750000,-32391.00000000
27.95312500,31539.00000000
27.96875000,28816.00000000
27.98437500,26372.00000000
28.00000000,25495.00000000
28.01562500,28374.00000000
28.03125000,31900.00000000
28.04687500,-30353.00000000
28.06250000,-28671.00000000
28.07812500,-28678.00000000
28.09375000,-28778.00000000
28.10937500,-28887.00000000
28.12500000,-28890.00000000
28.14062500,-28748.00000000
28.15625000,-28524.00000000
28.17187500,-28528.00000000
28.18750000,-28827.00000000
28.20312500,-29807.00000000
28.21875000,-29881.00000000
28.23437500,-29271.00000000
28.25000000,-28701.00000000
28.26562500,-28761.00000000
28.28125000,-29580.00000000
28.29687500,-32728.00000000
28.31250000,31192.00000000
28.32812500,30396.00000000
28.34375000,30387.00000000
28.35937500,30351.00000000
28.37500000,30537.00000000
28.39062500,30769.00000000
28.40625000,31097.00000000
28.42187500,31465.00000000
28.43750000,31711.00000000
28.45312500,31743.00000000
28.46875000,31367.00000000
28.48437500,31358.00000000
28.50000000,31753.00000000
28.51562500,32554.00000000
28.53125000,-32128.00000000
28.54687500,-31345.00000000
28.56250000,-30748.00000000
28.57812500,-30820.00000000
28.59375000,-31097.00000000
28.60937500,-31649.00000000
28.62500000,-32170.00000000
28.64062500,-32357.00000000
28.65625000,-32246.00000000
28.67187500,-31940.00000000
28.68750000,-31672.00000000
28.70312500,-31794.00000000
28.71875000,-32129.00000000
28.73437500,-32288.00000000
28.75000000,-32110.00000000
28.76562500,-31734.00000000
28.78125000,-31316.00000000
28.79687500,-31060.00000000
28.81250000,-30983.00000000
28.82812500,-31135.00000000
28.84375000,-31931.00000000
28.85937500,-32199.00000000
28.87500000,-32308.00000000
28.89062500,-32354.00000000
28.90625000,-32317.00000000
28.92187500,-32300.00000000
28.93750000,-32420.00000000
28.95312500,30946.00000000
28.96875000,26878.00000000
28.98437500,23101.00000000
29.00000000,21977.00000000
29.01562500,26605.00000000
29.03125000,31482.00000000
29.04687500,-29512.00000000
29.06250000,-27354.00000000
29.07812500,-27451.00000000
29.09375000,-27653.00000000
29.10937500,-27910.00000000
29.12500000,-29186.00000000
29.14062500,-31394.00000000
29.15625000,32072.00000000
29.17187500,31053.00000000
29.18750000,31063.00000000
29.20312500,-31645.00000000
29.21875000,-30047.00000000
29.23437500,-29605.00000000
29.25000000,-30226.00000000
29.26562500,-31051.00000000
29.28125000,-31788.00000000
29.29687500,-32397.00000000
29.31250000,-32281.00000000
29.32812500,-31994.00000000
29.34375000,-31710.00000000
29.35937500,-31545.00000000
29.37500000,-31670.00000000
29.39062500,-31987.00000000
29.40625000,-32391.00000000
29.42187500,-32593.00000000
29.43750000,-32476.00000000
29.45312500,-31622.00000000
29.46875000,-28836.00000000
29.48437500,-28246.00000000
29.50000000,-28634.00000000
29.51562500,-29860.00000000
29.53125000,-31777.00000000
29.54687500,31904.00000000
29.56250000,30981.00000000
29.57812500,31399.00000000
29.59375000,31935.00000000
29.60937500,32445.00000000
29.62500000,32735.00000000
29.64062500,-32195.00000000
29.65625000,-30368.00000000
29.67187500,-30441.00000000
29.68750000,-31405.00000000
29.70312500,32627.00000000
29.71875000,30508.00000000
29.73437500,28679.00000000
29.75000000,28100.00000000
29.76562500,28219.00000000
29.78125000,28229.00000000
29.79687500,28321.00000000
29.81250000,28513.00000000
29.82812500,28835.00000000
29.84375000,29824.00000000
29.85937500,30162.00000000
29.87500000,30403.00000000
29.89062500,30605.00000000
29.90625000,30826.00000000
29.92187500,31527.00000000
29.93750000,32126.00000000
29.95312500,31239.00000000
29.96875000,28817.00000000
29.98437500,26738.00000000
30.00000000,26248.00000000
30.01562500,29051.00000000
30.03125000,31955.00000000
30.04687500,-31235.00000000
30.06250000,-30531.00000000
30.07812500,-31029.00000000
30.09375000,-31092.00000000
30.10937500,-30212.00000000
30.12500000,-29673.00000000
30.14062500,-29408.00000000
30.15625000,-29423.00000000
30.17187500,-29667.00000000
30.18750000,-30179.00000000
30.20312500,-30867.00000000
30.21875000,-32380.00000000
30.23437500,30333.00000000
30.25000000,27746.00000000
30.26562500,26685.00000000
30.28125000,26898.00000000
30.29687500,31578.00000000
30.31250000,-30872.00000000
30.32812500,-29505.00000000
30.34375000,-29810.00000000
30.35937500,-30192.00000000
30.37500000,-30558.00000000
30.39062500,-30286.00000000
30.40625000,-29782.00000000
30.42187500,-29281.00000000
30.43750000,-29307.00000000
30.45312500,-30000.00000000
30.46875000,-32635.00000000
30.48437500,31516.00000000
30.50000000,30529.00000000
30.51562500,30169.00000000
30.53125000,30500.00000000
30.54687500,31071.00000000
30.56250000,31091.00000000
30.57812500,28956.00000000
30.59375000,26417.00000000
30.60937500,24847.00000000
30.62500000,24500.00000000
30.64062500,25550.00000000
30.65625000,30766.00000000
30.67187500,32341.00000000
30.68750000,32697.00000000
30.70312500,-32541.00000000
30.71875000,-32400.00000000
30.73437500,-32391.00000000
30.75000000,-32572.00000000
30.76562500,-32611.00000000
30.78125000,-32504.00000000
30.79687500,-32277.00000000
30.81250000,-31982.00000000
30.82812500,-31730.00000000
30.84375000,-31581.00000000
30.85937500,-31729.00000000
30.87500000,-31944.00000000
30.89062500,-32041.00000000
30.90625000,-31968.00000000
30.92187500,-31170.00000000
30.93750000,-30907.00000000
30.95312500,32442.00000000
30.96875000,28210.00000000
30.98437500,24239.00000000
31.00000000,22505.00000000
31.01562500,25315.00000000
31.03125000,29509.00000000
31.04687500,-32058.00000000
31.06250000,-30038.00000000
31.07812500,-29476.00000000
31.09375000,-28514.00000000
31.10937500,-26862.00000000
31.12500000,-28203.00000000
31.14062500,-31389.00000000
31.15625000,31090.00000000
31.17187500,29706.00000000
31.18750000,30005.00000000
31.20312500,-30664.00000000
31.21875000,-27854.00000000
31.23437500,-26729.00000000
31.25000000,-27167.00000000
31.26562500,-27617.00000000
31.28125000,-28010.00000000
31.29687500,32252.00000000
31.31250000,29036.00000000
31.32812500,27526.00000000
31.34375000,27670.00000000
31.35937500,29430.00000000
31.37500000,-29669.00000000
31.39062500,-28246.00000000
31.40625000,-28529.00000000
31.42187500,-28861.00000000
31.43750000,-29137.00000000
31.45312500,-28816.00000000
31.46875000,-27122.00000000
31.48437500,-27043.00000000
31.50000000,-27961.00000000
31.51562500,-29657.00000000
31.53125000,-31867.00000000
31.54687500,31891.00000000
31.56250000,31102.00000000
31.57812500,31415.00000000
31.59375000,31792.00000000
31.60937500,31943.00000000
31.62500000,31876.00000000
31.64062500,31868.00000000
31.65625000,32169.00000000
31.67187500,32442.00000000
31.68750000,32748.00000000
31.70312500,-32582.00000000
31.71875000,-32460.00000000
31.73437500,-32408.00000000
31.75000000,-32172.00000000
31.76562500,-32021.00000000
31.78125000,-31936.00000000
31.79687500,-31998.00000000
31.81250000,-32183.00000000
31.82812500,-32360.00000000
31.84375000,-32429.00000000
31.85937500,-32325.00000000
31.87500000,-32141.00000000
31.89062500,-31944.00000000
31.90625000,-31717.00000000
31.92187500,-31434.00000000
31.93750000,-31597.00000000
31.95312500,32244.00000000
31.96875000,29197.00000000
31.98437500,26610.00000000
32.00000000,25965.00000000
32.01562500,30041.00000000
32.03125000,-32162.00000000
32.04687500,-30026.00000000
32.06250000,-29827.00000000
32.07812500,-30848.00000000
32.09375000,-31322.00000000
32.10937500,-30243.00000000
32.12500000,-29701.00000000
32.14062500,-30093.00000000
32.15625000,-30936.00000000
32.17187500,-31238.00000000
32.18750000,-31093.00000000
32.20312500,-29962.00000000
32.21875000,-29471.00000000
32.23437500,-29490.00000000
32.25000000,-29920.00000000
32.26562500,-30167.00000000
32.28125000,-30227.00000000
32.29687500,-30057.00000000
32.31250000,-30008.00000000
32.32812500,-30056.00000000
32.34375000,-30232.00000000
32.35937500,-30510.00000000
32.37500000,-31109.00000000
32.39062500,-31321.00000000
32.40625000,-31491.00000000
32.42187500,-31621.00000000
32.43750000,-31627.00000000
32.45312500,-31466.00000000
32.46875000,-31755.00000000
32.48437500,-32375.00000000
32.50000000,32372.00000000
32.51562500,31607.00000000
32.53125000,31256.00000000
32.54687500,31528.00000000
32.56250000,-32455.00000000
32.57812500,-31777.00000000
32.59375000,-31397.00000000
32.60937500,-31387.00000000
32.62500000,-31580.00000000
32.64062500,-31926.00000000
32.65625000,-32326.00000000
32.67187500,-32122.00000000
32.68750000,-31687.00000000
32.70312500,-31241.00000000
32.71875000,-31016.00000000
32.73437500,-31041.00000000
32.75000000,-31659.00000000
32.76562500,-32147.00000000
32.78125000,-32533.00000000
32.79687500,-32714.00000000
32.81250000,-32726.00000000
32.82812500,-32517.00000000
32.84375000,-31959.00000000
32.85937500,-32076.00000000
32.87500000,-32509.00000000
32.89062500,32576.00000000
32.90625000,32358.00000000
32.92187500,32493.00000000
32.93750000,32481.00000000
32.95312500,30208.00000000
32.96875000,25979.00000000
32.98437500,22154.00000000
33.00000000,21082.00000000
33.01562500,25586.00000000
33.03125000,29937.00000000
33.04687500,-31843.00000000
33.06250000,-30320.00000000
33.07812500,-30545.00000000
33.09375000,-30305.00000000
33.10937500,-28534.00000000
33.12500000,-29750.00000000
33.14062500,32391.00000000
33.15625000,29165.00000000
33.17187500,27830.00000000
33.18750000,28381.00000000
33.20312500,-30975.00000000
33.21875000,-27283.00000000
33.23437500,-25569.00000000
33.25000000,-25772.00000000
33.26562500,-26012.00000000
33.28125000,-26306.00000000
33.29687500,-27220.00000000
33.31250000,-27797.00000000
33.32812500,-28334.00000000
33.34375000,-28849.00000000
33.35937500,-29247.00000000
33.37500000,-29357.00000000
33.39062500,-29142.00000000
33.40625000,-28927.00000000
33.42187500,-29084.00000000
33.43750000,-29707.00000000
33.45312500,-32279.00000000
33.46875000,25705.00000000
33.48437500,24616.00000000
33.50000000,25943.00000000
33.51562500,29195.00000000
33.53125000,-31809.00000000
33.54687500,-28084.00000000
33.56250000,-27316.00000000
33.57812500,-28173.00000000
33.59375000,-28935.00000000
33.60937500,-29477.00000000
33.62500000,-29760.00000000
33.64062500,-29992.00000000
33.65625000,-30257.00000000
33.67187500,-30416.00000000
33.68750000,-30653.00000000
33.70312500,-30930.00000000
33.71875000,-31285.00000000
33.73437500,-31605.00000000
33.75000000,-31905.00000000
33.76562500,-31914.00000000
33.78125000,-31861.00000000
33.79687500,-31800.00000000
33.81250000,-31769.00000000
33.82812500,-31825.00000000
33.84375000,-32262.00000000
33.85937500,-32634.00000000
33.87500000,32404.00000000
33.89062500,31918.00000000
33.90625000,31552.00000000
33.92187500,31648.00000000
33.93750000,32044.00000000
33.95312500,30909.00000000
33.96875000,28104.00000000
33.98437500,25364.00000000
34.00000000,24281.00000000
34.01562500,27384.00000000
34.03125000,30596.00000000
34.04687500,-32759.00000000
34.06250000,-32579.00000000
34.07812500,31938.00000000
34.09375000,31543.00000000
34.10937500,-32235.00000000
34.12500000,-30581.00000000
34.14062500,-29891.00000000
34.15625000,-30314.00000000
34.17187500,-31111.00000000
34.18750000,-32001.00000000
34.20312500,31528.00000000
34.21875000,30998.00000000
34.23437500,30922.00000000
34.25000000,30833.00000000
34.26562500,30786.00000000
34.28125000,30771.00000000
34.29687500,30772.00000000
34.31250000,30961.00000000
34.32812500,31321.00000000
34.34375000,31709.00000000
34.35937500,32182.00000000
34.37500000,-32688.00000000
34.39062500,-32626.00000000
34.40625000,-32518.00000000
34.42187500,-32421.00000000
34.43750000,-32553.00000000
34.45312500,30602.00000000
34.46875000,22585.00000000
34.48437500,21122.00000000
34.50000000,21825.00000000
34.51562500,24811.00000000
34.53125000,29815.00000000
34.54687500,-31147.00000000
34.56250000,-29389.00000000
34.57812500,-29758.00000000
34.59375000,-30229.00000000
34.60937500,-30593.00000000
34.62500000,-30741.00000000
34.64062500,32757.00000000
34.65625000,25611.00000000
34.67187500,24449.00000000
34.68750000,25204.00000000
34.70312500,28090.00000000
34.71875000,-32649.00000000
34.73437500,-28295.00000000
34.75000000,-26720.00000000
34.76562500,-26933.00000000
34.78125000,-27330.00000000
34.79687500,-27795.00000000
34.81250000,-28125.00000000
34.82812500,-28331.00000000
34.84375000,-28689.00000000
34.85937500,-28931.00000000
34.87500000,-29336.00000000
34.89062500,-29954.00000000
34.90625000,-30602.00000000
34.92187500,-32035.00000000
34.93750000,32727.00000000
34.95312500,29871.00000000
34.96875000,25623.00000000
34.98437500,22450.00000000
35.00000000,22271.00000000
35.01562500,28135.00000000
35.03125000,32637.00000000
35.04687500,-29536.00000000
35.06250000,-28644.00000000
35.07812500,-29326.00000000
35.09375000,-29353.00000000
35.10937500,-28193.00000000
35.12500000,-27712.00000000
35.14062500,-27363.00000000
35.15625000,-27342.00000000
35.17187500,-27928.00000000
35.18750000,-29149.00000000
35.20312500,-32351.00000000
35.21875000,31841.00000000
35.23437500,31226.00000000
35.25000000,31349.00000000
35.26562500,31626.00000000
35.28125000,31999.00000000
35.29687500,32338.00000000
35.31250000,32128.00000000
35.32812500,31770.00000000
35.34375000,31638.00000000
35.35937500,31899.00000000
35.37500000,-32681.00000000
35.39062500,-32519.00000000
35.40625000,-32709.00000000
35.42187500,32476.00000000
35.43750000,32238.00000000
35.45312500,32121.00000000
35.46875000,31857.00000000
35.48437500,31783.00000000
35.50000000,31496.00000000
35.51562500,31091.00000000
35.53125000,30943.00000000
35.54687500,31086.00000000
35.56250000,31552.00000000
35.57812500,32016.00000000
35.59375000,32426.00000000
35.60937500,32649.00000000
35.62500000,32719.00000000
35.64062500,-32632.00000000
35.65625000,-32055.00000000
35.67187500,-31873.00000000
35.68750000,-31887.00000000
35.70312500,-32067.00000000
35.71875000,-32297.00000000
35.73437500,-32478.00000000
35.75000000,-32676.00000000
35.76562500,32741.00000000
35.78125000,32619.00000000
35.79687500,32510.00000000
35.81250000,32466.00000000
35.82812500,32666.00000000
35.84375000,-32001.00000000
35.85937500,-31671.00000000
35.87500000,-31503.00000000
35.89062500,-31565.00000000
35.90625000,-31943.00000000
35.92187500,32432.00000000
35.93750000,31933.00000000
35.95312500,30107.00000000
35.96875000,27152.00000000
35.98437500,24826.00000000
36.00000000,22635.00000000
36.01562500,19314.00000000
36.03125000,19827.00000000
36.04687500,20194.00000000
36.06250000,20784.00000000
36.07812500,23299.00000000
36.09375000,27630.00000000
36.10937500,-30405.00000000
36.12500000,-27563.00000000
36.14062500,-27052.00000000
36.15625000,-28529.00000000
36.17187500,-29984.00000000
36.18750000,-30882.00000000
36.20312500,-30842.00000000
36.21875000,-30280.00000000
36.23437500,-29758.00000000
36.25000000,-29591.00000000
36.26562500,-29807.00000000
36.28125000,-30058.00000000
36.29687500,-30379.00000000
36.31250000,-30475.00000000
36.32812500,-30474.00000000
36.34375000,-30414.00000000
36.35937500,-30425.00000000
36.37500000,-30524.00000000
36.39062500,-30515.00000000
36.40625000,-30629.00000000
36.42187500,-30854.00000000
36.43750000,-31083.00000000
36.45312500,-31258.00000000
36.46875000,-31580.00000000
36.48437500,-31723.00000000
36.50000000,-31881.00000000
36.51562500,-32024.00000000
36.53125000,-32064.00000000
36.54687500,-32002.00000000
36.56250000,-31637.00000000
36.57812500,-31313.00000000
36.59375000,-31117.00000000
36.60937500,-31128.00000000
36.62500000,-31121.00000000
36.64062500,-31093.00000000
36.65625000,-31564.00000000
36.67187500,-32026.00000000
36.68750000,-32573.00000000
36.70312500,32368.00000000
36.71875000,32012.00000000
36.73437500,31987.00000000
36.75000000,32422.00000000
36.76562500,32381.00000000
36.78125000,32153.00000000
36.79687500,31927.00000000
36.81250000,31709.00000000
36.82812500,31429.00000000
36.84375000,31435.00000000
36.85937500,31582.00000000
36.87500000,31951.00000000
36.89062500,-32767.00000000
36.90625000,-31804.00000000
36.92187500,-30583.00000000
36.93750000,-30642.00000000
36.95312500,32381.00000000
36.96875000,28082.00000000
36.98437500,24324.00000000
37.00000000,23176.00000000
37.01562500,27224.00000000
37.03125000,31583.00000000
37.04687500,-30226.00000000
37.06250000,-28854.00000000
37.07812500,-29495.00000000
37.09375000,-29916.00000000
37.10937500,-29794.00000000
37.12500000,-31252.00000000
37.14062500,31154.00000000
37.15625000,28176.00000000
37.17187500,26860.00000000
37.18750000,27001.00000000
37.20312500,31720.00000000
37.21875000,-30816.00000000
37.23437500,-29561.00000000
37.25000000,-29875.00000000
37.26562500,-30033.00000000
37.28125000,-30016.00000000
37.29687500,-29662.00000000
37.31250000,-29515.00000000
37.32812500,-29487.00000000
37.34375000,-29943.00000000
37.35937500,-30876.00000000
37.37500000,32524.00000000
37.39062500,31845.00000000
37.40625000,31689.00000000
37.42187500,32108.00000000
37.43750000,-32694.00000000
37.45312500,-32055.00000000
37.46875000,-31363.00000000
37.48437500,-31260.00000000
37.50000000,-31243.00000000
37.51562500,-31292.00000000
37.53125000,-31301.00000000
37.54687500,-31272.00000000
37.56250000,-31005.00000000
37.57812500,-30929.00000000
37.59375000,-30981.00000000
37.60937500,-31203.00000000
37.62500000,-31556.00000000
37.64062500,-32087.00000000
37.65625000,32576.00000000
37.67187500,32629.00000000
37.68750000,-32594.00000000
37.70312500,-32170.00000000
37.71875000,-31798.00000000
37.73437500,-31661.00000000
37.75000000,29039.00000000
37.76562500,26218.00000000
37.78125000,25326.00000000
37.79687500,26162.00000000
37.81250000,28409.00000000
37.82812500,-29792.00000000
37.84375000,-27961.00000000
37.85937500,-27940.00000000
37.87500000,-28066.00000000
37.89062500,-28420.00000000
37.90625000,-29372.00000000
37.92187500,-31702.00000000
37.93750000,-32152.00000000
37.95312500,31757.00000000
37.96875000,28941.00000000
37.98437500,26766.00000000
38.00000000,26529.00000000
38.01562500,30451.00000000
38.03125000,-30823.00000000
38.04687500,-26819.00000000
38.06250000,-25276.00000000
38.07812500,-26247.00000000
38.09375000,-27757.00000000
38.10937500,-31108.00000000
38.12500000,-32367.00000000
38.14062500,32494.00000000
38.15625000,32400.00000000
38.17187500,32291.00000000
38.18750000,32204.00000000
38.20312500,32244.00000000
38.21875000,32396.00000000
38.23437500,32565.00000000
38.25000000,32699.00000000
38.26562500,32751.00000000
38.28125000,32648.00000000
38.29687500,32077.00000000
38.31250000,31702.00000000
38.32812500,31539.00000000
38.34375000,31722.00000000
38.35937500,32329.00000000
38.37500000,-31316.00000000
38.39062500,-30389.00000000
38.40625000,-29347.00000000
38.42187500,-28380.00000000
38.43750000,-27923.00000000
38.45312500,-28353.00000000
38.46875000,-30999.00000000
38.48437500,-32660.00000000
38.50000000,31701.00000000
38.51562500,31139.00000000
38.53125000,31084.00000000
38.54687500,30951.00000000
38.56250000,30821.00000000
38.57812500,30904.00000000
38.59375000,31143.00000000
38.60937500,31415.00000000
38.62500000,31675.00000000
38.64062500,30137.00000000
38.65625000,23898.00000000
38.67187500,22790.00000000
38.68750000,23462.00000000
38.70312500,25740.00000000
38.71875000,29511.00000000
38.73437500,-32486.00000000
38.75000000,-31148.00000000
38.76562500,-31214.00000000
38.78125000,-31065.00000000
38.79687500,-30817.00000000
38.81250000,-30796.00000000
38.82812500,-31619.00000000
38.84375000,-32136.00000000
38.85937500,-32638.00000000
38.87500000,32535.00000000
38.89062500,32365.00000000
38.90625000,32397.00000000
38.92187500,-32714.00000000
38.93750000,-32528.00000000
38.95312500,30849.00000000
38.96875000,26853.00000000
38.98437500,23316.00000000
39.00000000,22334.00000000
39.01562500,26865.00000000
39.03125000,31502.00000000
39.04687500,-30062.00000000
39.06250000,-28426.00000000
39.07812500,-28495.00000000
39.09375000,-28183.00000000
39.10937500,-27069.00000000
39.12500000,-27234.00000000
39.14062500,-28008.00000000
39.15625000,-28767.00000000
39.17187500,-29219.00000000
39.18750000,-29521.00000000
39.20312500,-29712.00000000
39.21875000,-29653.00000000
39.23437500,-29777.00000000
39.25000000,-30000.00000000
39.26562500,-30122.00000000
39.28125000,-30209.00000000
39.29687500,-30901.00000000
39.31250000,-31418.00000000
39.32812500,-31934.00000000
39.34375000,-32434.00000000
39.35937500,-32761.00000000
39.37500000,-32219.00000000
39.39062500,-31573.00000000
39.40625000,-31080.00000000
39.42187500,-30804.00000000
39.43750000,-30822.00000000
39.45312500,-31094.00000000
39.46875000,-31619.00000000
39.48437500,-31602.00000000
39.50000000,-31674.00000000
39.51562500,-31836.00000000
39.53125000,-32120.00000000
39.54687500,-32461.00000000
39.56250000,32713.00000000
39.57812500,-32724.00000000
39.59375000,-32521.00000000
39.60937500,-32345.00000000
39.62500000,-32293.00000000
39.64062500,-32492.00000000
39.65625000,32302.00000000
39.67187500,32011.00000000
39.68750000,31888.00000000
39.70312500,31997.00000000
39.71875000,32262.00000000
39.73437500,32569.00000000
39.75000000,-32742.00000000
39.76562500,32534.00000000
39.78125000,32096.00000000
39.79687500,31534.00000000
39.81250000,31022.00000000
39.82812500,31387.00000000
39.84375000,32183.00000000
39.85937500,-32559.00000000
39.87500000,-31803.00000000
39.89062500,-31333.00000000
39.90625000,-31332.00000000
39.92187500,-32091.00000000
39.93750000,-32393.00000000
39.95312500,31313.00000000
39.96875000,28144.00000000
39.98437500,25401.00000000
40.00000000,24543.00000000
40.01562500,27646.00000000
40.03125000,31698.00000000
40.04687500,-29714.00000000
40.06250000,-27582.00000000
40.07812500,-27765.00000000
40.09375000,-28554.00000000
40.10937500,-31181.00000000
40.12500000,-32287.00000000
40.14062500,-32751.00000000
40.15625000,-32669.00000000
40.17187500,-32573.00000000
40.18750000,-32478.00000000
40.20312500,-32547.00000000
40.21875000,-32622.00000000
40.23437500,-32713.00000000
40.25000000,32714.00000000
40.26562500,32679.00000000
40.28125000,32515.00000000
40.29687500,32212.00000000
40.31250000,31808.00000000
40.32812500,31309.00000000
40.34375000,30931.00000000
40.35937500,30811.00000000
40.37500000,31269.00000000
40.39062500,31626.00000000
40.40625000,32041.00000000
40.42187500,32414.00000000
40.43750000,-32766.00000000
40.45312500,-32521.00000000
40.46875000,-32343.00000000
40.48437500,-32409.00000000
40.50000000,-32516.00000000
40.51562500,-32555.00000000
40.53125000,-32500.00000000
40.54687500,-32404.00000000
40.56250000,-32282.00000000
40.57812500,-32250.00000000
40.59375000,-32278.00000000
40.60937500,-32357.00000000
40.62500000,-32490.00000000
40.64062500,-32671.00000000
40.65625000,32697.00000000
40.67187500,-32724.00000000
40.68750000,-32552.00000000
40.70312500,-32411.00000000
40.71875000,-32380.00000000
40.73437500,-32461.00000000
40.75000000,-32590.00000000
40.76562500,-32552.00000000
40.78125000,-32468.00000000
40.79687500,-32374.00000000
40.81250000,-32327.00000000
40.82812500,-32217.00000000
40.84375000,-31985.00000000
40.85937500,-31802.00000000
40.87500000,-31771.00000000
40.89062500,-31823.00000000
40.90625000,-31940.00000000
40.92187500,-31775.00000000
40.93750000,-31491.00000000
40.95312500,32157.00000000
40.96875000,28222.00000000
40.98437500,24382.00000000
41.00000000,22775.00000000
41.01562500,25572.00000000
41.03125000,29132.00000000
41.04687500,32361.00000000
41.06250000,-31711.00000000
41.07812500,-31813.00000000
41.09375000,-31359.00000000
41.10937500,-29780.00000000
41.12500000,-29739.00000000
41.14062500,-30118.00000000
41.15625000,-30412.00000000
41.17187500,-30620.00000000
41.18750000,-30750.00000000
41.20312500,-30961.00000000
41.21875000,-31064.00000000
41.23437500,-30964.00000000
41.25000000,-30769.00000000
41.26562500,-30538.00000000
41.28125000,-30438.00000000
41.29687500,-30947.00000000
41.31250000,-31751.00000000
41.32812500,-32580.00000000
41.34375000,32340.00000000
41.35937500,32241.00000000
41.37500000,-32102.00000000
41.39062500,-31435.00000000
41.40625000,-31041.00000000
41.42187500,-30889.00000000
41.43750000,-30966.00000000
41.45312500,-31088.00000000
41.46875000,-31594.00000000
41.48437500,-32007.00000000
41.50000000,-32415.00000000
41.51562500,-32676.00000000
41.53125000,-32640.00000000
41.54687500,-32292.00000000
41.56250000,-31734.00000000
41.57812500,-31940.00000000
41.59375000,-32477.00000000
41.60937500,32454.00000000
41.62500000,32103.00000000
41.64062500,32177.00000000
41.65625000,-32432.00000000
41.67187500,-31997.00000000
41.68750000,-31868.00000000
41.70312500,-32061.00000000
41.71875000,-32393.00000000
41.73437500,-32757.00000000
41.75000000,31911.00000000
41.76562500,31554.00000000
41.78125000,31344.00000000
41.79687500,31411.00000000
41.81250000,31816.00000000
41.82812500,-32424.00000000
41.84375000,-32172.00000000
41.85937500,-32485.00000000
41.87500000,32440.00000000
41.89062500,31908.00000000
41.90625000,31741.00000000
41.92187500,32550.00000000
41.93750000,-32393.00000000
41.95312500,31923.00000000
41.96875000,28919.00000000
41.98437500,26059.00000000
42.00000000,24888.00000000
42.01562500,27566.00000000
42.03125000,31271.00000000
42.04687500,-30706.00000000
42.06250000,-28907.00000000
42.07812500,-28921.00000000
42.09375000,-29038.00000000
42.10937500,-29542.00000000
42.12500000,-29907.00000000
42.14062500,-30160.00000000
42.15625000,-30244.00000000
42.17187500,-30258.00000000
42.18750000,-30221.00000000
42.20312500,-30500.00000000
42.21875000,-30987.00000000
42.23437500,-31547.00000000
42.25000000,-31858.00000000
42.26562500,-31765.00000000
42.28125000,-31630.00000000
42.29687500,-31782.00000000
42.31250000,-31961.00000000
42.32812500,-32177.00000000
42.34375000,-32299.00000000
42.35937500,-32177.00000000
42.37500000,-32169.00000000
42.39062500,-32601.00000000
42.40625000,32711.00000000
42.42187500,-32690.00000000
42.43750000,-32393.00000000
42.45312500,-32117.00000000
42.46875000,-32752.00000000
42.48437500,31628.00000000
42.50000000,30328.00000000
42.51562500,29280.00000000
42.53125000,28836.00000000
42.54687500,28968.00000000
42.56250000,30447.00000000
42.57812500,31161.00000000
42.59375000,31622.00000000
42.60937500,31723.00000000
42.62500000,31542.00000000
42.64062500,31198.00000000
42.65625000,31152.00000000
42.67187500,31441.00000000
42.68750000,31776.00000000
42.70312500,32110.00000000
42.71875000,32329.00000000
42.73437500,32738.00000000
42.75000000,-32637.00000000
42.76562500,-32683.00000000
42.78125000,32708.00000000
42.79687500,32575.00000000
42.81250000,32501.00000000
42.82812500,-32630.00000000
42.84375000,-32227.00000000
42.85937500,-31955.00000000
42.87500000,-31835.00000000
42.89062500,-31824.00000000
42.90625000,-31959.00000000
42.92187500,32728.00000000
42.93750000,31284.00000000
42.95312500,27100.00000000
42.96875000,21548.00000000
42.98437500,17635.00000000
43.00000000,17152.00000000
43.01562500,23069.00000000
43.03125000,26478.00000000
43.04687500,28597.00000000
43.06250000,29105.00000000
43.07812500,29341.00000000
43.09375000,-30789.00000000
43.10937500,-27631.00000000
43.12500000,-26275.00000000
43.14062500,-26594.00000000
43.15625000,-27005.00000000
43.17187500,-27458.00000000
43.18750000,-27858.00000000
43.20312500,-28468.00000000
43.21875000,-28713.00000000
43.23437500,-28894.00000000
43.25000000,-29061.00000000
43.26562500,-29034.00000000
43.28125000,-28507.00000000
43.29687500,-28542.00000000
43.31250000,-28784.00000000
43.32812500,-29197.00000000
43.34375000,-30063.00000000
43.35937500,-31082.00000000
43.37500000,-31872.00000000
43.39062500,-31897.00000000
43.40625000,-31810.00000000
43.42187500,-31602.00000000
43.43750000,-31441.00000000
43.45312500,-31517.00000000
43.46875000,-31712.00000000
43.48437500,-31423.00000000
43.50000000,-31058.00000000
43.51562500,-30814.00000000
43.53125000,-30761.00000000
43.54687500,-30935.00000000
43.56250000,-31896.00000000
43.57812500,-32343.00000000
43.59375000,-32624.00000000
43.60937500,32690.00000000
43.62500000,32600.00000000
43.64062500,32571.00000000
43.65625000,32673.00000000
43.67187500,-32687.00000000
43.68750000,-32556.00000000
43.70312500,-32538.00000000
43.71875000,32506.00000000
43.73437500,30509.00000000
43.75000000,30007.00000000
43.76562500,30262.00000000
43.78125000,31207.00000000
43.79687500,32518.00000000
43.81250000,-31984.00000000
43.82812500,-32094.00000000
43.84375000,32752.00000000
43.85937500,32015.00000000
43.87500000,31681.00000000
43.89062500,31888.00000000
43.90625000,32369.00000000
43.92187500,-32040.00000000
43.93750000,-32367.00000000
43.95312500,30352.00000000
43.96875000,25870.00000000
43.98437500,22411.00000000
44.00000000,21493.00000000
44.01562500,26586.00000000
44.03125000,31744.00000000
44.04687500,-29480.00000000
44.06250000,-27542.00000000
44.07812500,-27371.00000000
44.09375000,-27204.00000000
44.10937500,-27465.00000000
44.12500000,-27970.00000000
44.14062500,-28499.00000000
44.15625000,-28912.00000000
44.17187500,-29245.00000000
44.18750000,-29425.00000000
44.20312500,-29754.00000000
44.21875000,-30241.00000000
44.23437500,-30904.00000000
44.25000000,-31717.00000000
44.26562500,-32439.00000000
44.28125000,-32462.00000000
44.29687500,-31866.00000000
44.31250000,-31240.00000000
44.32812500,-30740.00000000
44.34375000,-30573.00000000
44.35937500,-30682.00000000
44.37500000,-30935.00000000
44.39062500,-30856.00000000
44.40625000,-30783.00000000
44.42187500,-30771.00000000
44.43750000,-30966.00000000
44.45312500,-31319.00000000
44.46875000,-32015.00000000
44.48437500,-32338.00000000
44.50000000,-32589.00000000
44.51562500,32714.00000000
44.53125000,32518.00000000
44.54687500,32100.00000000
44.56250000,31284.00000000
44.57812500,31454.00000000
44.59375000,31894.00000000
44.60937500,32403.00000000
44.62500000,-32625.00000000
44.64062500,-32341.00000000
44.65625000,32632.00000000
44.67187500,32333.00000000
44.68750000,32228.00000000
44.70312500,32238.00000000
44.71875000,32374.00000000
44.73437500,-32630.00000000
44.75000000,-32733.00000000
44.76562500,32270.00000000
44.78125000,31585.00000000
44.79687500,31075.00000000
44.81250000,30694.00000000
44.82812500,30849.00000000
44.84375000,31437.00000000
44.85937500,31801.00000000
44.87500000,31857.00000000
44.89062500,32132.00000000
44.90625000,32604.00000000
44.92187500,-32469.00000000
44.93750000,31664.00000000
44.95312500,26663.00000000
44.96875000,19924.00000000
44.98437500,15231.00000000
45.00000000,14790.00000000
45.01562500,23718.00000000
45.03125000,29980.00000000
45.04687500,-31513.00000000
45.06250000,-30731.00000000
45.07812500,-31172.00000000
45.09375000,-29150.00000000
45.10937500,-27496.00000000
45.12500000,-26655.00000000
45.14062500,-26723.00000000
45.15625000,-26856.00000000
45.17187500,-27043.00000000
45.18750000,-27426.00000000
45.20312500,-28788.00000000
45.21875000,-29827.00000000
45.23437500,-30778.00000000
45.25000000,-31205.00000000
45.26562500,-31139.00000000
45.28125000,-30117.00000000
45.29687500,-29670.00000000
45.31250000,-29626.00000000
45.32812500,-29881.00000000
45.34375000,-29987.00000000
45.35937500,-29955.00000000
45.37500000,-30159.00000000
45.39062500,-30490.00000000
45.40625000,-30900.00000000
45.42187500,-31546.00000000
45.43750000,-32269.00000000
45.45312500,32655.00000000
45.46875000,32175.00000000
45.48437500,32145.00000000
45.50000000,32355.00000000
45.51562500,32712.00000000
45.53125000,-32490.00000000
45.54687500,-32235.00000000
45.56250000,-32104.00000000
45.57812500,-32203.00000000
45.59375000,-32226.00000000
45.60937500,-32212.00000000
45.62500000,-32218.00000000
45.64062500,-32260.00000000
45.65625000,-32633.00000000
45.67187500,32737.00000000
45.68750000,-32768.00000000
45.70312500,-32633.00000000
45.71875000,-32494.00000000
45.73437500,-32540.00000000
45.75000000,32633.00000000
45.76562500,32441.00000000
45.78125000,32543.00000000
45.79687500,-32723.00000000
45.81250000,-32371.00000000
45.82812500,-31889.00000000
45.84375000,32592.00000000
45.85937500,30557.00000000
45.87500000,28613.00000000
45.89062500,27676.00000000
45.90625000,27780.00000000
45.92187500,30935.00000000
45.93750000,30930.00000000
45.95312500,26508.00000000
45.96875000,19687.00000000
45.98437500,15418.00000000
46.00000000,15213.00000000
46.01562500,25986.00000000
46.03125000,-31312.00000000
46.04687500,-25908.00000000
46.06250000,-24629.00000000
46.07812500,-25021.00000000
46.09375000,-25218.00000000
46.10937500,-25272.00000000
46.12500000,-25422.00000000
46.14062500,-25939.00000000
46.15625000,-26668.00000000
46.17187500,-27305.00000000
46.18750000,-27960.00000000
46.20312500,-27803.00000000
46.21875000,-27690.00000000
46.23437500,-27896.00000000
46.25000000,-28439.00000000
46.26562500,-29135.00000000
46.28125000,-30564.00000000
46.29687500,-30607.00000000
46.31250000,-30214.00000000
46.32812500,-29946.00000000
46.34375000,-29918.00000000
46.35937500,-30005.00000000
46.37500000,-30499.00000000
46.39062500,-30788.00000000
46.40625000,-31013.00000000
46.42187500,-31181.00000000
46.43750000,-31682.00000000
46.45312500,-32444.00000000
46.46875000,31909.00000000
46.48437500,31796.00000000
46.50000000,32013.00000000
46.51562500,32364.00000000
46.53125000,32606.00000000
46.54687500,32553.00000000
46.56250000,32207.00000000
46.57812500,32170.00000000
46.59375000,32223.00000000
46.60937500,32308.00000000
46.62500000,32328.00000000
46.64062500,32324.00000000
46.65625000,-32712.00000000
46.67187500,-32473.00000000
46.68750000,-32466.00000000
46.70312500,-32657.00000000
46.71875000,32576.00000000
46.73437500,31779.00000000
46.75000000,31315.00000000
46.76562500,30781.00000000
46.78125000,30440.00000000
46.79687500,30586.00000000
46.81250000,31074.00000000
46.82812500,32293.00000000
46.84375000,32596.00000000
46.85937500,32358.00000000
46.87500000,31832.00000000
46.89062500,31527.00000000
46.90625000,31507.00000000
46.92187500,31724.00000000
46.93750000,32378.00000000
46.95312500,31465.00000000
46.96875000,28335.00000000
46.98437500,24577.00000000
47.00000000,22435.00000000
47.01562500,22016.00000000
47.03125000,22983.00000000
47.04687500,24632.00000000
47.06250000,25994.00000000
47.07812500,26359.00000000
47.09375000,30399.00000000
47.10937500,-32647.00000000
47.12500000,-31462.00000000
47.14062500,-31508.00000000
47.15625000,-31483.00000000
47.17187500,-31414.00000000
47.18750000,-31157.00000000
47.20312500,-31230.00000000
47.21875000,-31542.00000000
47.23437500,-31876.00000000
47.25000000,-32071.00000000
47.26562500,-32168.00000000
47.28125000,-31986.00000000
47.29687500,-31791.00000000
47.31250000,-31859.00000000
47.32812500,-32150.00000000
47.34375000,-32461.00000000
47.35937500,-32702.00000000
47.37500000,32335.00000000
47.39062500,32264.00000000
47.40625000,32370.00000000
47.42187500,32615.00000000
47.43750000,-32584.00000000
47.45312500,-31615.00000000
47.46875000,-29259.00000000
47.48437500,-29360.00000000
47.50000000,-30214.00000000
47.51562500,-31471.00000000
47.53125000,32370.00000000
47.54687500,30936.00000000
47.56250000,30397.00000000
47.57812500,30354.00000000
47.59375000,30268.00000000
47.60937500,30317.00000000
47.62500000,30471.00000000
47.64062500,30688.00000000
47.65625000,31133.00000000
47.67187500,31134.00000000
47.68750000,30981.00000000
47.70312500,30760.00000000
47.71875000,30671.00000000
47.73437500,31386.00000000
47.75000000,32071.00000000
47.76562500,32720.00000000
47.78125000,-32408.00000000
47.79687500,-32259.00000000
47.81250000,-32372.00000000
47.82812500,-32287.00000000
47.84375000,32415.00000000
47.85937500,30557.00000000
47.87500000,28597.00000000
47.89062500,27499.00000000
47.90625000,27274.00000000
47.92187500,28109.00000000
47.93750000,32328.00000000
47.95312500,32145.00000000
47.96875000,29558.00000000
47.98437500,26937.00000000
48.00000000,25686.00000000
48.01562500,26883.00000000
48.03125000,28930.00000000
48.04687500,31020.00000000
48.06250000,32212.00000000
48.07812500,32481.00000000
48.09375000,-31171.00000000
48.10937500,-30244.00000000
48.12500000,-29980.00000000
48.14062500,-30254.00000000
48.15625000,-30522.00000000
48.17187500,-30712.00000000
48.18750000,-30684.00000000
48.20312500,-30510.00000000
48.21875000,-30485.00000000
48.23437500,-30683.00000000
48.25000000,-30913.00000000
48.26562500,-31052.00000000
48.28125000,-30691.00000000
48.29687500,-30319.00000000
48.31250000,-30106.00000000
48.32812500,-30138.00000000
48.34375000,-30349.00000000
48.35937500,-30586.00000000
48.37500000,-30968.00000000
48.39062500,-31213.00000000
48.40625000,-31521.00000000
48.42187500,-31736.00000000
48.43750000,-31850.00000000
48.45312500,-31864.00000000
48.46875000,-31643.00000000
48.48437500,-31574.00000000
48.50000000,-31533.00000000
48.51562500,-30850.00000000
48.53125000,-29627.00000000
48.54687500,-28606.00000000
48.56250000,-28959.00000000
48.57812500,-30214.00000000
48.59375000,-32018.00000000
48.60937500,31951.00000000
48.62500000,31203.00000000
48.64062500,31301.00000000
48.65625000,31962.00000000
48.67187500,32145.00000000
48.68750000,32048.00000000
48.70312500,31584.00000000
48.71875000,30895.00000000
48.73437500,30596.00000000
48.75000000,31196.00000000
48.76562500,31969.00000000
48.78125000,-32755.00000000
48.79687500,-32200.00000000
48.81250000,-32086.00000000
48.82812500,-32397.00000000
48.84375000,-32328.00000000
48.85937500,-32238.00000000
48.87500000,-32147.00000000
48.89062500,-31994.00000000
48.90625000,-31845.00000000
48.92187500,-31602.00000000
48.93750000,-30933.00000000
48.95312500,-31827.00000000
48.96875000,30667.00000000
48.98437500,27025.00000000
49.00000000,24810.00000000
49.01562500,23502.00000000
49.03125000,23734.00000000
49.04687500,24804.00000000
49.06250000,26049.00000000
49.07812500,26806.00000000
49.09375000,32210.00000000
49.10937500,-30476.00000000
49.12500000,-29287.00000000
49.14062500,-29568.00000000
49.15625000,-29625.00000000
49.17187500,-29458.00000000
49.18750000,-28916.00000000
49.20312500,-28874.00000000
49.21875000,-29046.00000000
49.23437500,-29436.00000000
49.25000000,-29960.00000000
49.26562500,-30261.00000000
49.28125000,-30020.00000000
49.29687500,-29841.00000000
49.31250000,-29713.00000000
49.32812500,-29757.00000000
49.34375000,-30131.00000000
49.35937500,-30657.00000000
49.37500000,-31329.00000000
49.39062500,-31433.00000000
49.40625000,-31342.00000000
49.42187500,-31151.00000000
49.43750000,-30980.00000000
49.45312500,-32393.00000000
49.46875000,27136.00000000
49.48437500,25732.00000000
49.50000000,25994.00000000
49.51562500,27830.00000000
49.53125000,31143.00000000
49.54687500,-31207.00000000
49.56250000,-29122.00000000
49.57812500,-28721.00000000
49.59375000,-28479.00000000
49.60937500,-28495.00000000
49.62500000,-28826.00000000
49.64062500,-29916.00000000
49.65625000,-30406.00000000
49.67187500,-30824.00000000
49.68750000,-31315.00000000
49.70312500,-31766.00000000
49.71875000,-32175.00000000
49.73437500,-32081.00000000
49.75000000,-31446.00000000
49.76562500,-31033.00000000
49.78125000,-31115.00000000
49.79687500,-31472.00000000
49.81250000,-31890.00000000
49.82812500,-32436.00000000
49.84375000,-31695.00000000
49.85937500,-30282.00000000
49.87500000,-29401.00000000
49.89062500,-29549.00000000
49.90625000,-30456.00000000
49.92187500,31907.00000000
49.93750000,30442.00000000
49.95312500,28540.00000000
49.96875000,26178.00000000
49.98437500,24060.00000000
50.00000000,24372.00000000
50.01562500,26265.00000000
50.03125000,29106.00000000
50.04687500,31653.00000000
50.06250000,-32617.00000000
50.07812500,-32611.00000000
50.09375000,-31759.00000000
50.10937500,-31221.00000000
50.12500000,-31015.00000000
50.14062500,-31088.00000000
50.15625000,-31111.00000000
50.17187500,-31080.00000000
50.18750000,-30955.00000000
50.20312500,-30954.00000000
50.21875000,-31175.00000000
50.23437500,-31580.00000000
50.25000000,-31927.00000000
50.26562500,-32048.00000000
50.28125000,-31754.00000000
50.29687500,-31518.00000000
50.31250000,-31414.00000000
50.32812500,-31433.00000000
50.34375000,-31473.00000000
50.35937500,-30889.00000000
50.37500000,-28561.00000000
50.39062500,-27864.00000000
50.40625000,-27844.00000000
50.42187500,-28528.00000000
50.43750000,-29843.00000000
50.45312500,-31246.00000000
50.46875000,-32740.00000000
50.48437500,32466.00000000
50.50000000,32345.00000000
50.51562500,32360.00000000
50.53125000,32496.00000000
50.54687500,32660.00000000
50.56250000,-32689.00000000
50.57812500,-32765.00000000
50.59375000,32541.00000000
50.60937500,32241.00000000
50.62500000,32015.00000000
50.64062500,32142.00000000
50.65625000,32481.00000000
50.67187500,-32634.00000000
50.68750000,-32285.00000000
50.70312500,-32173.00000000
50.71875000,-32342.00000000
50.73437500,32671.00000000
50.75000000,32358.00000000
50.76562500,32033.00000000
50.78125000,32022.00000000
50.79687500,32396.00000000
50.81250000,-32684.00000000
50.82812500,-32042.00000000
50.84375000,-32761.00000000
50.85937500,31077.00000000
50.87500000,29414.00000000
50.89062500,28824.00000000
50.90625000,29172.00000000
50.92187500,31853.00000000
50.93750000,-32197.00000000
50.95312500,31970.00000000
50.96875000,28212.00000000
50.98437500,24907.00000000
51.00000000,24072.00000000
51.01562500,27034.00000000
51.03125000,28961.00000000
51.04687500,28746.00000000
51.06250000,25830.00000000
51.07812500,22572.00000000
51.09375000,26515.00000000
51.10937500,31690.00000000
51.12500000,-28626.00000000
51.14062500,-25218.00000000
51.15625000,-24164.00000000
51.17187500,-25209.00000000
51.18750000,-25884.00000000
51.20312500,-25916.00000000
51.21875000,-26123.00000000
51.23437500,-26544.00000000
51.25000000,-27197.00000000
51.26562500,-28054.00000000
51.28125000,-28780.00000000
51.29687500,-28555.00000000
51.31250000,-28326.00000000
51.32812500,-28217.00000000
51.34375000,-28384.00000000
51.35937500,-28769.00000000
51.37500000,-29493.00000000
51.39062500,-29748.00000000
51.40625000,-29801.00000000
51.42187500,-29778.00000000
51.43750000,-29810.00000000
51.45312500,-31644.00000000
51.46875000,26831.00000000
51.48437500,25183.00000000
51.50000000,25487.00000000
51.51562500,27600.00000000
51.53125000,31226.00000000
51.54687500,-30940.00000000
51.56250000,-29805.00000000
51.57812500,-30141.00000000
51.59375000,-30409.00000000
51.60937500,-30485.00000000
51.62500000,-30350.00000000
51.64062500,-30707.00000000
51.65625000,-31011.00000000
51.67187500,-31117.00000000
51.68750000,-31143.00000000
51.70312500,-31092.00000000
51.71875000,-30759.00000000
51.73437500,-30193.00000000
51.75000000,-30218.00000000
51.76562500,-30300.00000000
51.78125000,-30531.00000000
51.79687500,-30888.00000000
51.81250000,-31205.00000000
51.82812500,-31894.00000000
51.84375000,-31690.00000000
51.85937500,-30937.00000000
51.87500000,-30576.00000000
51.89062500,-30944.00000000
51.90625000,-31987.00000000
51.92187500,30089.00000000
51.93750000,28373.00000000
51.95312500,26249.00000000
51.96875000,23833.00000000
51.98437500,21899.00000000
52.00000000,22862.00000000
52.01562500,25210.00000000
52.03125000,28656.00000000
52.04687500,31705.00000000
52.06250000,-32381.00000000
52.07812500,-32458.00000000
52.09375000,-32479.00000000
52.10937500,-32436.00000000
52.12500000,-32357.00000000
52.14062500,-32050.00000000
52.15625000,-31584.00000000
52.17187500,-31130.00000000
52.18750000,-31013.00000000
52.20312500,-31493.00000000
52.21875000,-31941.00000000
52.23437500,-32055.00000000
52.25000000,-31880.00000000
52.26562500,-31606.00000000
52.28125000,-31363.00000000
52.29687500,-31727.00000000
52.31250000,-32265.00000000
52.32812500,-32644.00000000
52.34375000,32716.00000000
52.35937500,32521.00000000
52.37500000,32248.00000000
52.39062500,32194.00000000
52.40625000,32184.00000000
52.42187500,32229.00000000
52.43750000,32329.00000000
52.45312500,32565.00000000
52.46875000,32620.00000000
52.48437500,32668.00000000
52.50000000,32717.00000000
52.51562500,-32738.00000000
52.53125000,-32645.00000000
52.54687500,-32588.00000000
52.56250000,-32691.00000000
52.57812500,-32761.00000000
52.59375000,32722.00000000
52.60937500,32697.00000000
52.62500000,-32576.00000000
52.64062500,-31766.00000000
52.65625000,-31942.00000000
52.67187500,-32407.00000000
52.68750000,32555.00000000
52.70312500,31756.00000000
52.71875000,31067.00000000
52.73437500,30970.00000000
52.75000000,30887.00000000
52.76562500,30587.00000000
52.78125000,30520.00000000
52.79687500,30809.00000000
52.81250000,31326.00000000
52.82812500,-32744.00000000
52.84375000,-31931.00000000
52.85937500,-31802.00000000
52.87500000,-32420.00000000
52.89062500,32146.00000000
52.90625000,31157.00000000
52.92187500,29536.00000000
52.93750000,30211.00000000
52.95312500,30020.00000000
52.96875000,28008.00000000
52.98437500,25441.00000000
53.00000000,23877.00000000
53.01562500,23348.00000000
53.03125000,23386.00000000
53.04687500,24269.00000000
53.06250000,25420.00000000
53.07812500,26245.00000000
53.09375000,32137.00000000
53.10937500,-29951.00000000
53.12500000,-28168.00000000
53.14062500,-28192.00000000
53.15625000,-28305.00000000
53.17187500,-28484.00000000
53.18750000,-29590.00000000
53.20312500,-29936.00000000
53.21875000,-29929.00000000
53.23437500,-29973.00000000
53.25000000,-30085.00000000
53.26562500,-30091.00000000
53.28125000,-30325.00000000
53.29687500,-30761.00000000
53.31250000,-31047.00000000
53.32812500,-31123.00000000
53.34375000,-31313.00000000
53.35937500,-31612.00000000
53.37500000,-31846.00000000
53.39062500,-32060.00000000
53.40625000,-32121.00000000
53.42187500,-32437.00000000
53.43750000,32437.00000000
53.45312500,31808.00000000
53.46875000,32212.00000000
53.48437500,-32664.00000000
53.50000000,-31675.00000000
53.51562500,-30799.00000000
53.53125000,-30536.00000000
53.54687500,-30804.00000000
53.56250000,-31476.00000000
53.57812500,-31912.00000000
53.59375000,-32202.00000000
53.60937500,-32439.00000000
53.62500000,-32642.00000000
53.64062500,-32554.00000000
53.65625000,-32283.00000000
53.67187500,-31907.00000000
53.68750000,-31434.00000000
53.70312500,-31151.00000000
53.71875000,-31283.00000000
53.73437500,-32258.00000000
53.75000000,-32659.00000000
53.76562500,32754.00000000
53.78125000,-32617.00000000
53.79687500,-32413.00000000
53.81250000,-32280.00000000
53.82812500,-32195.00000000
53.84375000,-31656.00000000
53.85937500,-30575.00000000
53.87500000,-29817.00000000
53.89062500,-29989.00000000
53.90625000,-31047.00000000
53.92187500,30972.00000000
53.93750000,29437.00000000
53.95312500,27681.00000000
53.96875000,25616.00000000
53.98437500,23769.00000000
54.00000000,24317.00000000
54.01562500,26413.00000000
54.03125000,29694.00000000
54.04687500,32729.00000000
54.06250000,-31228.00000000
54.07812500,-31106.00000000
54.09375000,-31142.00000000
54.10937500,-31339.00000000
54.12500000,-31517.00000000
54.14062500,-31773.00000000
54.15625000,-32102.00000000
54.17187500,-32327.00000000
54.18750000,-31724.00000000
54.20312500,-30442.00000000
54.21875000,-29067.00000000
54.23437500,-28362.00000000
54.25000000,-28434.00000000
54.26562500,-29197.00000000
54.28125000,-31929.00000000
54.29687500,-32694.00000000
54.31250000,32714.00000000
54.32812500,32616.00000000
54.34375000,32620.00000000
54.35937500,32700.00000000
54.37500000,-32719.00000000
54.39062500,-32609.00000000
54.40625000,-32557.00000000
54.42187500,-32611.00000000
54.43750000,-32598.00000000
54.45312500,-32480.00000000
54.46875000,-32455.00000000
54.48437500,-32348.00000000
54.50000000,-32266.00000000
54.51562500,-32304.00000000
54.53125000,-32391.00000000
54.54687500,-32541.00000000
54.56250000,32554.00000000
54.57812500,32384.00000000
54.59375000,32291.00000000
54.60937500,32352.00000000
54.62500000,32509.00000000
54.64062500,32552.00000000
54.65625000,32306.00000000
54.67187500,31999.00000000
54.68750000,31782.00000000
54.70312500,31687.00000000
54.71875000,31705.00000000
54.73437500,32075.00000000
54.75000000,32443.00000000
54.76562500,-32672.00000000
54.78125000,-32319.00000000
54.79687500,-32218.00000000
54.81250000,-32303.00000000
54.82812500,-32635.00000000
54.84375000,-32703.00000000
54.85937500,32697.00000000
54.87500000,32408.00000000
54.89062500,31753.00000000
54.90625000,30979.00000000
54.92187500,30245.00000000
54.93750000,30466.00000000
54.95312500,28841.00000000
54.96875000,25470.00000000
54.98437500,22325.00000000
55.00000000,21074.00000000
55.01562500,23107.00000000
55.03125000,27166.00000000
55.04687500,31300.00000000
55.06250000,-31866.00000000
55.07812500,-30457.00000000
55.09375000,-26685.00000000
55.10937500,-26008.00000000
55.12500000,-26049.00000000
55.14062500,-26750.00000000
55.15625000,-27936.00000000
55.17187500,-29126.00000000
55.18750000,-29660.00000000
55.20312500,-29833.00000000
55.21875000,-30274.00000000
55.23437500,-30785.00000000
55.25000000,-31199.00000000
55.26562500,-31025.00000000
55.28125000,-29295.00000000
55.29687500,-29250.00000000
55.31250000,-30073.00000000
55.32812500,-31391.00000000
55.34375000,32359.00000000
55.35937500,30845.00000000
55.37500000,30548.00000000
55.39062500,30593.00000000
55.40625000,30436.00000000
55.42187500,30502.00000000
55.43750000,30817.00000000
55.45312500,31918.00000000
55.46875000,32575.00000000
55.48437500,-32552.00000000
55.50000000,-32427.00000000
55.51562500,-32513.00000000
55.53125000,-32617.00000000
55.54687500,-32634.00000000
55.56250000,-32496.00000000
55.57812500,-32358.00000000
55.59375000,-32212.00000000
55.60937500,-32174.00000000
55.62500000,-32343.00000000
55.64062500,-32069.00000000
55.65625000,-31910.00000000
55.67187500,-32066.00000000
55.68750000,-32320.00000000
55.70312500,-32617.00000000
55.71875000,32454.00000000
55.73437500,32302.00000000
55.75000000,32697.00000000
55.76562500,-32595.00000000
55.78125000,-32505.00000000
55.79687500,-32443.00000000
55.81250000,-32406.00000000
55.82812500,-31724.00000000
55.84375000,32722.00000000
55.85937500,30016.00000000
55.87500000,27104.00000000
55.89062500,25414.00000000
55.90625000,24945.00000000
55.92187500,28531.00000000
55.93750000,31268.00000000
55.95312500,31305.00000000
55.96875000,28733.00000000
55.98437500,26603.00000000
56.00000000,27452.00000000
56.01562500,29799.00000000
56.03125000,-32260.00000000
56.04687500,-29211.00000000
56.06250000,-27968.00000000
56.07812500,-28402.00000000
56.09375000,-28999.00000000
56.10937500,-29225.00000000
56.12500000,-29334.00000000
56.14062500,-29342.00000000
56.15625000,-29360.00000000
56.17187500,-29595.00000000
56.18750000,-30512.00000000
56.20312500,-30875.00000000
56.21875000,-31038.00000000
56.23437500,-31015.00000000
56.25000000,-30857.00000000
56.26562500,-30654.00000000
56.28125000,-30806.00000000
56.29687500,-31045.00000000
56.31250000,-31267.00000000
56.32812500,-31539.00000000
56.34375000,-31783.00000000
56.35937500,32174.00000000
56.37500000,26909.00000000
56.39062500,26456.00000000
56.40625000,27704.00000000
56.42187500,30152.00000000
56.43750000,-31776.00000000
56.45312500,-27511.00000000
56.46875000,-28026.00000000
56.48437500,-28338.00000000
56.50000000,-28485.00000000
56.51562500,-28525.00000000
56.53125000,-28416.00000000
56.54687500,-28158.00000000
56.56250000,-28391.00000000
56.57812500,-28985.00000000
56.59375000,-29686.00000000
56.60937500,-30146.00000000
56.62500000,-30257.00000000
56.64062500,-29607.00000000
56.65625000,-29025.00000000
56.67187500,-28810.00000000
56.68750000,-29052.00000000
56.70312500,-29533.00000000
56.71875000,-30171.00000000
56.73437500,-31964.00000000
56.75000000,31440.00000000
56.76562500,28220.00000000
56.78125000,25451.00000000
56.79687500,24648.00000000
56.81250000,25471.00000000
56.82812500,30842.00000000
56.84375000,-31890.00000000
56.85937500,-30918.00000000
56.87500000,-31447.00000000
56.89062500,-31619.00000000
56.90625000,-31450.00000000
56.92187500,-30967.00000000
56.93750000,-30922.00000000
56.95312500,32411.00000000
56.96875000,28374.00000000
56.98437500,24706.00000000
57.00000000,24482.00000000
57.01562500,27280.00000000
57.03125000,31571.00000000
57.04687500,-30055.00000000
57.06250000,-28298.00000000
57.07812500,-28118.00000000
57.09375000,-26843.00000000
57.10937500,-26824.00000000
57.12500000,-27477.00000000
57.14062500,-28473.00000000
57.15625000,-29478.00000000
57.17187500,-30111.00000000
57.18750000,-29695.00000000
57.20312500,-29702.00000000
57.21875000,-30193.00000000
57.23437500,-31082.00000000
57.25000000,-32102.00000000
57.26562500,32443.00000000
57.28125000,31787.00000000
57.29687500,32185.00000000
57.31250000,-32652.00000000
57.32812500,-31869.00000000
57.34375000,-31288.00000000
57.35937500,-31132.00000000
57.37500000,-32002.00000000
57.39062500,32759.00000000
57.40625000,32149.00000000
57.42187500,31864.00000000
57.43750000,31936.00000000
57.45312500,32668.00000000
57.46875000,-32617.00000000
57.48437500,-32646.00000000
57.50000000,32671.00000000
57.51562500,32348.00000000
57.53125000,32010.00000000
57.54687500,31878.00000000
57.56250000,32106.00000000
57.57812500,32508.00000000
57.59375000,-32529.00000000
57.60937500,-32217.00000000
57.62500000,-32263.00000000
57.64062500,32763.00000000
57.65625000,31935.00000000
57.67187500,30750.00000000
57.68750000,30015.00000000
57.70312500,30097.00000000
57.71875000,30700.00000000
57.73437500,-32606.00000000
57.75000000,-32499.00000000
57.76562500,31548.00000000
57.78125000,29477.00000000
57.79687500,28347.00000000
57.81250000,28313.00000000
57.82812500,31016.00000000
57.84375000,-32708.00000000
57.85937500,-31631.00000000
57.87500000,-31422.00000000
57.89062500,-31373.00000000
57.90625000,-31274.00000000
57.92187500,-31280.00000000
57.93750000,-31545.00000000
57.95312500,32301.00000000
57.96875000,29232.00000000
57.98437500,26566.00000000
58.00000000,26902.00000000
58.01562500,29148.00000000
58.03125000,32656.00000000
58.04687500,-29715.00000000
58.06250000,-28523.00000000
58.07812500,-29089.00000000
58.09375000,-29379.00000000
58.10937500,-29367.00000000
58.12500000,-29270.00000000
58.14062500,-29192.00000000
58.15625000,-29343.00000000
58.17187500,-29954.00000000
58.18750000,-31771.00000000
58.20312500,-32395.00000000
58.21875000,-32527.00000000
58.23437500,-32211.00000000
58.25000000,-31748.00000000
58.26562500,-31330.00000000
58.28125000,-31358.00000000
58.29687500,-31549.00000000
58.31250000,-31604.00000000
58.32812500,-31631.00000000
58.34375000,-31692.00000000
58.35937500,-31895.00000000
58.37500000,-32701.00000000
58.39062500,32603.00000000
58.40625000,32669.00000000
58.42187500,-32628.00000000
58.43750000,-32510.00000000
58.45312500,32540.00000000
58.46875000,32135.00000000
58.48437500,32004.00000000
58.50000000,32179.00000000
58.51562500,32713.00000000
58.53125000,-32093.00000000
58.54687500,-31322.00000000
58.56250000,-31638.00000000
58.57812500,-32387.00000000
58.59375000,32219.00000000
58.60937500,31528.00000000
58.62500000,31430.00000000
58.64062500,-32657.00000000
58.65625000,-31648.00000000
58.67187500,-30929.00000000
58.68750000,-30748.00000000
58.70312500,-31085.00000000
58.71875000,-31815.00000000
58.73437500,32248.00000000
58.75000000,30407.00000000
58.76562500,27462.00000000
58.78125000,25184.00000000
58.79687500,24956.00000000
58.81250000,26381.00000000
58.82812500,-32768.00000000
58.84375000,-29560.00000000
58.85937500,-28413.00000000
58.87500000,-29049.00000000
58.89062500,-29464.00000000
58.90625000,-29612.00000000
58.92187500,-29386.00000000
58.93750000,-29237.00000000
58.95312500,-31322.00000000
58.96875000,30137.00000000
58.98437500,26237.00000000
59.00000000,25127.00000000
59.01562500,27601.00000000
59.03125000,31762.00000000
59.04687500,-29905.00000000
59.06250000,-28121.00000000
59.07812500,-30054.00000000
59.09375000,28690.00000000
59.10937500,27261.00000000
59.12500000,27513.00000000
59.14062500,29511.00000000
59.15625000,-31924.00000000
59.17187500,-27708.00000000
59.18750000,-25584.00000000
59.20312500,-26002.00000000
59.21875000,-26638.00000000
59.23437500,-27391.00000000
59.25000000,-28045.00000000
59.26562500,-28491.00000000
59.28125000,-28966.00000000
59.29687500,-29138.00000000
59.31250000,-29177.00000000
59.32812500,-29120.00000000
59.34375000,-29187.00000000
59.35937500,-29923.00000000
59.37500000,-30463.00000000
59.39062500,-30992.00000000
59.40625000,-31340.00000000
59.42187500,-31503.00000000
59.43750000,-31507.00000000
59.45312500,-31675.00000000
59.46875000,-31845.00000000
59.48437500,-32014.00000000
59.50000000,-32198.00000000
59.51562500,-32364.00000000
59.53125000,-32275.00000000
59.54687500,-31536.00000000
59.56250000,-31381.00000000
59.57812500,-31559.00000000
59.59375000,-32072.00000000
59.60937500,32664.00000000
59.62500000,31955.00000000
59.64062500,31606.00000000
59.65625000,31604.00000000
59.67187500,31505.00000000
59.68750000,31267.00000000
59.70312500,31044.00000000
59.71875000,31044.00000000
59.73437500,31917.00000000
59.75000000,32605.00000000
59.76562500,32747.00000000
59.78125000,32182.00000000
59.79687500,31146.00000000
59.81250000,30086.00000000
59.82812500,28269.00000000
59.84375000,28098.00000000
59.85937500,28482.00000000
59.87500000,28864.00000000
59.89062500,29184.00000000
59.90625000,29292.00000000
59.92187500,28819.00000000
59.93750000,28904.00000000
59.95312500,27987.00000000
59.96875000,25924.00000000
59.98437500,24377.00000000
60.00000000,25465.00000000
60.01562500,27417.00000000
60.03125000,30679.00000000
60.04687500,-31857.00000000
60.06250000,-30595.00000000
60.07812500,32607.00000000
60.09375000,24754.00000000
60.10937500,23203.00000000
60.12500000,23726.00000000
60.14062500,26523.00000000
60.15625000,31455.00000000
60.17187500,-29255.00000000
60.18750000,-26836.00000000
60.20312500,-27223.00000000
60.21875000,-27918.00000000
60.23437500,-28632.00000000
60.25000000,-29598.00000000
60.26562500,-30737.00000000
60.28125000,-32174.00000000
60.29687500,-31793.00000000
60.31250000,-30592.00000000
60.32812500,-29038.00000000
60.34375000,-28011.00000000
60.35937500,-28127.00000000
60.37500000,-28839.00000000
60.39062500,-29600.00000000
60.40625000,-30069.00000000
60.42187500,-30325.00000000
60.43750000,-30885.00000000
60.45312500,-31930.00000000
60.46875000,-32085.00000000
60.48437500,-32154.00000000
60.50000000,-32154.00000000
60.51562500,-32348.00000000
60.53125000,-32739.00000000
60.54687500,32117.00000000
60.56250000,31509.00000000
60.57812500,30585.00000000
60.59375000,30058.00000000
60.60937500,30291.00000000
60.62500000,30812.00000000
60.64062500,32526.00000000
60.65625000,-31915.00000000
60.67187500,-31347.00000000
60.68750000,-31243.00000000
60.70312500,-31122.00000000
60.71875000,-31210.00000000
60.73437500,-32289.00000000
60.75000000,-32251.00000000
60.76562500,-31416.00000000
60.78125000,-30625.00000000
60.79687500,-30516.00000000
60.81250000,-31352.00000000
60.82812500,30687.00000000
60.84375000,29013.00000000
60.85937500,28271.00000000
60.87500000,28455.00000000
60.89062500,28886.00000000
60.90625000,29505.00000000
60.92187500,30871.00000000
60.93750000,31342.00000000
60.95312500,29463.00000000
60.96875000,25655.00000000
60.98437500,22126.00000000
61.00000000,22032.00000000
61.01562500,24771.00000000
61.03125000,28952.00000000
61.04687500,-32611.00000000
61.06250000,-30533.00000000
61.07812500,-30346.00000000
61.09375000,-29961.00000000
61.10937500,-29867.00000000
61.12500000,-30271.00000000
61.14062500,-30916.00000000
61.15625000,-31085.00000000
61.17187500,-30807.00000000
61.18750000,-30478.00000000
61.20312500,-30388.00000000
61.21875000,-30387.00000000
61.23437500,-30566.00000000
61.25000000,-30811.00000000
61.26562500,-30955.00000000
61.28125000,-31072.00000000
61.29687500,-31093.00000000
61.31250000,-31101.00000000
61.32812500,-31117.00000000
61.34375000,-31126.00000000
61.35937500,-31277.00000000
61.37500000,-31478.00000000
61.39062500,-31638.00000000
61.40625000,-31707.00000000
61.42187500,-31794.00000000
61.43750000,-31907.00000000
61.45312500,-32114.00000000
61.46875000,-32197.00000000
61.48437500,-32212.00000000
61.50000000,-32154.00000000
61.51562500,-32095.00000000
61.53125000,-32089.00000000
61.54687500,-32075.00000000
61.56250000,-31903.00000000
61.57812500,-31563.00000000
61.59375000,-31201.00000000
61.60937500,-31008.00000000
61.62500000,-31096.00000000
61.64062500,-31859.00000000
61.65625000,32457.00000000
61.67187500,30604.00000000
61.68750000,28914.00000000
61.70312500,28175.00000000
61.71875000,28293.00000000
61.73437500,30925.00000000
61.75000000,32381.00000000
61.76562500,32610.00000000
61.78125000,31752.00000000
61.79687500,30822.00000000
61.81250000,30238.00000000
61.82812500,30661.00000000
61.84375000,31398.00000000
61.85937500,32048.00000000
61.87500000,32383.00000000
61.89062500,32381.00000000
61.90625000,32310.00000000
61.92187500,32330.00000000
61.93750000,32481.00000000
61.95312500,31211.00000000
61.96875000,28525.00000000
61.98437500,26038.00000000
62.00000000,25949.00000000
62.01562500,28215.00000000
62.03125000,32300.00000000
62.04687500,-29041.00000000
62.06250000,-26800.00000000
62.07812500,-26940.00000000
62.09375000,-28755.00000000
62.10937500,-29965.00000000
62.12500000,-30787.00000000
62.14062500,-30930.00000000
62.15625000,-30641.00000000
62.17187500,-30580.00000000
62.18750000,-30871.00000000
62.20312500,-30921.00000000
62.21875000,-30909.00000000
62.23437500,-30930.00000000
62.25000000,-31054.00000000
62.26562500,-31244.00000000
62.28125000,-31613.00000000
62.29687500,-31834.00000000
62.31250000,-32166.00000000
62.32812500,-32519.00000000
62.34375000,-32703.00000000
62.35937500,-32748.00000000
62.37500000,-32529.00000000
62.39062500,-32251.00000000
62.40625000,-32131.00000000
62.42187500,-32144.00000000
62.43750000,-32121.00000000
62.45312500,-32177.00000000
62.46875000,-32255.00000000
62.48437500,-32314.00000000
62.50000000,-32351.00000000
62.51562500,-32361.00000000
62.53125000,-32356.00000000
62.54687500,-32657.00000000
62.56250000,32545.00000000
62.57812500,32155.00000000
62.59375000,31849.00000000
62.60937500,31792.00000000
62.62500000,31837.00000000
62.64062500,32117.00000000
62.65625000,30423.00000000
62.67187500,26720.00000000
62.68750000,23041.00000000
62.70312500,21450.00000000
62.71875000,21733.00000000
62.73437500,28384.00000000
62.75000000,31374.00000000
62.76562500,30793.00000000
62.78125000,28069.00000000
62.79687500,26659.00000000
62.81250000,26505.00000000
62.82812500,30774.00000000
62.84375000,-31771.00000000
62.85937500,-30332.00000000
62.87500000,-30406.00000000
62.89062500,-30513.00000000
62.90625000,-30583.00000000
62.92187500,-30562.00000000
62.93750000,-30654.00000000
62.95312500,32685.00000000
62.96875000,28631.00000000
62.98437500,24867.00000000
63.00000000,24602.00000000
63.01562500,27382.00000000
63.03125000,31631.00000000
63.04687500,-29574.00000000
63.06250000,-27013.00000000
63.07812500,-26280.00000000
63.09375000,-24923.00000000
63.10937500,-24649.00000000
63.12500000,-25395.00000000
63.14062500,-26839.00000000
63.15625000,-28176.00000000
63.17187500,-29067.00000000
63.18750000,-30089.00000000
63.20312500,-30100.00000000
63.21875000,-29925.00000000
63.23437500,-29856.00000000
63.25000000,-29902.00000000
63.26562500,-30023.00000000
63.28125000,-30563.00000000
63.29687500,-30938.00000000
63.31250000,-31279.00000000
63.32812500,-31471.00000000
63.34375000,-31557.00000000
63.35937500,-31563.00000000
63.37500000,-31566.00000000
63.39062500,-31580.00000000
63.40625000,-31580.00000000
63.42187500,-31500.00000000
63.43750000,-31395.00000000
63.45312500,-31523.00000000
63.46875000,-31636.00000000
63.48437500,-31650.00000000
63.50000000,-31620.00000000
63.51562500,-31595.00000000
63.53125000,-31628.00000000
63.54687500,-32159.00000000
63.56250000,-32667.00000000
63.57812500,32482.00000000
63.59375000,32345.00000000
63.60937500,32321.00000000
63.62500000,32386.00000000
63.64062500,-32172.00000000
63.65625000,32413.00000000
63.67187500,29721.00000000
63.68750000,27061.00000000
63.70312500,25874.00000000
63.71875000,26020.00000000
63.73437500,30705.00000000
63.75000000,-31680.00000000
63.76562500,-30313.00000000
63.78125000,-30625.00000000
63.79687500,-30857.00000000
63.81250000,-30943.00000000
63.82812500,-30966.00000000
63.84375000,-30939.00000000
63.85937500,-30946.00000000
63.87500000,-31076.00000000
63.89062500,-31278.00000000
63.90625000,-31471.00000000
63.92187500,-31864.00000000
63.93750000,-32171.00000000
63.95312500,31576.00000000
63.96875000,28466.00000000
63.98437500,25742.00000000
64.00000000,25889.00000000
64.01562500,28365.00000000
64.03125000,32533.00000000
64.04687500,-28892.00000000
64.06250000,-26687.00000000
64.07812500,-26692.00000000
64.09375000,-28354.00000000
64.10937500,-29723.00000000
64.12500000,-30803.00000000
64.14062500,-31422.00000000
64.15625000,-31616.00000000
64.17187500,-31736.00000000
64.18750000,-31816.00000000
64.20312500,-31821.00000000
64.21875000,-31661.00000000
64.23437500,-31475.00000000
64.25000000,-31435.00000000
64.26562500,31961.00000000
64.28125000,24296.00000000
64.29687500,22976.00000000
64.31250000,23783.00000000
64.32812500,26576.00000000
64.34375000,31129.00000000
64.35937500,-28648.00000000
64.37500000,-29136.00000000
64.39062500,-29507.00000000
64.40625000,-29787.00000000
64.42187500,-29939.00000000
64.43750000,-29947.00000000
64.45312500,-29868.00000000
64.46875000,-30015.00000000
64.48437500,-30180.00000000
64.50000000,-30330.00000000
64.51562500,-30460.00000000
64.53125000,-30523.00000000
64.54687500,-30810.00000000
64.56250000,-31597.00000000
64.57812500,32704.00000000
64.59375000,31630.00000000
64.60937500,31265.00000000
64.62500000,31556.00000000
64.64062500,-32161.00000000
64.65625000,-31343.00000000
64.67187500,-31431.00000000
64.68750000,-32293.00000000
64.70312500,32238.00000000
64.71875000,31420.00000000
64.73437500,30129.00000000
64.75000000,29828.00000000
64.76562500,29761.00000000
64.78125000,29756.00000000
64.79687500,29904.00000000
64.81250000,30245.00000000
64.82812500,31084.00000000
64.84375000,31414.00000000
64.85937500,31753.00000000
64.87500000,32083.00000000
64.89062500,32391.00000000
64.90625000,32535.00000000
64.92187500,32204.00000000
64.93750000,31762.00000000
64.95312500,29279.00000000
64.96875000,25352.00000000
64.98437500,22149.00000000
65.00000000,22993.00000000
65.01562500,26091.00000000
65.03125000,30384.00000000
65.04687500,-31020.00000000
65.06250000,-28688.00000000
65.07812500,-28142.00000000
65.09375000,-27415.00000000
65.10937500,-27663.00000000
65.12500000,-28689.00000000
65.14062500,-29904.00000000
65.15625000,-30668.00000000
65.17187500,-30969.00000000
65.18750000,-31222.00000000
65.20312500,-31214.00000000
65.21875000,-31133.00000000
65.23437500,-31033.00000000
65.25000000,-31049.00000000
65.26562500,-31210.00000000
65.28125000,-31642.00000000
65.29687500,-31881.00000000
65.31250000,-32039.00000000
65.32812500,-32098.00000000
65.34375000,-32138.00000000
65.35937500,-32053.00000000
65.37500000,-32090.00000000
65.39062500,-32188.00000000
65.40625000,-32251.00000000
65.42187500,-32240.00000000
65.43750000,-32340.00000000
65.45312500,32748.00000000
65.46875000,32468.00000000
65.48437500,32224.00000000
65.50000000,32357.00000000
65.51562500,-32597.00000000
65.53125000,-31690.00000000
65.54687500,-30178.00000000
65.56250000,-29880.00000000
65.57812500,-29940.00000000
65.59375000,-30287.00000000
65.60937500,-30667.00000000
65.62500000,-30931.00000000
65.64062500,-31125.00000000
65.65625000,32731.00000000
65.67187500,29510.00000000
65.68750000,26491.00000000
65.70312500,25283.00000000
65.71875000,25887.00000000
65.73437500,31838.00000000
65.75000000,-30186.00000000
65.76562500,-28492.00000000
65.78125000,-28609.00000000
65.79687500,-28833.00000000
65.81250000,-29137.00000000
65.82812500,-29740.00000000
65.84375000,-29978.00000000
65.85937500,-30180.00000000
65.87500000,-30344.00000000
65.89062500,-30436.00000000
65.90625000,-30533.00000000
65.92187500,-30486.00000000
65.93750000,-30420.00000000
65.95312500,-32076.00000000
65.96875000,30124.00000000
65.98437500,26929.00000000
66.00000000,25913.00000000
66.01562500,27994.00000000
66.03125000,32027.00000000
66.04687500,-29340.00000000
66.06250000,-27328.00000000
66.07812500,-27749.00000000
66.09375000,-29670.00000000
66.10937500,-30866.00000000
66.12500000,-31789.00000000
66.14062500,-32138.00000000
66.15625000,-32024.00000000
66.17187500,-32096.00000000
66.18750000,-32494.00000000
66.20312500,-32742.00000000
66.21875000,32518.00000000
66.23437500,32342.00000000
66.25000000,32280.00000000
66.26562500,32348.00000000
66.28125000,-32765.00000000
66.29687500,-32638.00000000
66.31250000,-32633.00000000
66.32812500,-32634.00000000
66.34375000,-32634.00000000
66.35937500,-32669.00000000
66.37500000,-32738.00000000
66.39062500,32671.00000000
66.40625000,32552.00000000
66.42187500,32519.00000000
66.43750000,31057.00000000
66.45312500,25506.00000000
66.46875000,24459.00000000
66.48437500,24886.00000000
66.50000000,26701.00000000
66.51562500,30096.00000000
66.53125000,-32049.00000000
66.54687500,-30046.00000000
66.56250000,-30101.00000000
66.57812500,-30490.00000000
66.59375000,-31246.00000000
66.60937500,-32083.00000000
66.62500000,-32732.00000000
66.64062500,-32701.00000000
66.65625000,-32078.00000000
66.67187500,-31745.00000000
66.68750000,-31945.00000000
66.70312500,-32636.00000000
66.71875000,32004.00000000
66.73437500,30167.00000000
66.75000000,29806.00000000
66.76562500,29906.00000000
66.78125000,30039.00000000
66.79687500,30192.00000000
66.81250000,30385.00000000
66.82812500,30670.00000000
66.84375000,30746.00000000
66.85937500,30950.00000000
66.87500000,31253.00000000
66.89062500,31669.00000000
66.90625000,32386.00000000
66.92187500,32485.00000000
66.93750000,32425.00000000
66.95312500,30222.00000000
66.96875000,26359.00000000
66.98437500,23005.00000000
67.00000000,22932.00000000
67.01562500,24987.00000000
67.03125000,25966.00000000
67.04687500,25129.00000000
67.06250000,23413.00000000
67.07812500,22978.00000000
67.09375000,29876.00000000
67.10937500,-29732.00000000
67.12500000,-25320.00000000
67.14062500,-24160.00000000
67.15625000,-24903.00000000
67.17187500,-25368.00000000
67.18750000,-26927.00000000
67.20312500,-28020.00000000
67.21875000,-29070.00000000
67.23437500,-30143.00000000
67.25000000,-30924.00000000
67.26562500,-31356.00000000
67.28125000,-31233.00000000
67.29687500,-30967.00000000
67.31250000,-30707.00000000
67.32812500,-30582.00000000
67.34375000,-30595.00000000
67.35937500,-30881.00000000
67.37500000,-30976.00000000
67.39062500,-31000.00000000
67.40625000,-30997.00000000
67.42187500,-31122.00000000
67.43750000,-31381.00000000
67.45312500,-31925.00000000
67.46875000,-32060.00000000
67.48437500,-32078.00000000
67.50000000,-31925.00000000
67.51562500,-31668.00000000
67.53125000,-31418.00000000
67.54687500,-31101.00000000
67.56250000,-31047.00000000
67.57812500,-31053.00000000
67.59375000,-31085.00000000
67.60937500,-31195.00000000
67.62500000,-31411.00000000
67.64062500,-32180.00000000
67.65625000,-32568.00000000
67.67187500,32767.00000000
67.68750000,-32743.00000000
67.70312500,-32555.00000000
67.71875000,-32288.00000000
67.73437500,-31839.00000000
67.75000000,-31786.00000000
67.76562500,-31789.00000000
67.78125000,-31861.00000000
67.79687500,-31835.00000000
67.81250000,-31653.00000000
67.82812500,-31354.00000000
67.84375000,-31374.00000000
67.85937500,-31484.00000000
67.87500000,-31543.00000000
67.89062500,-31438.00000000
67.90625000,-31079.00000000
67.92187500,-31218.00000000
67.93750000,-31563.00000000
67.95312500,32018.00000000
67.96875000,28703.00000000
67.98437500,25844.00000000
68.00000000,25536.00000000
68.01562500,27573.00000000
68.03125000,31448.00000000
68.04687500,-32049.00000000
68.06250000,32269.00000000
68.07812500,29520.00000000
68.09375000,29387.00000000
68.10937500,31178.00000000
68.12500000,-31245.00000000
68.14062500,-28294.00000000
68.15625000,-27142.00000000
68.17187500,-27751.00000000
68.18750000,-27932.00000000
68.20312500,-27808.00000000
68.21875000,-27894.00000000
68.23437500,-28204.00000000
68.25000000,-28657.00000000
68.26562500,-29170.00000000
